Date : Thu Jun 03 18:56:24 2021

3000ev

AES params
 Ep [eV] : 3000.0
 It [uA] : 0.40
 Fmod [kHz] : 2.2
 Amod [V] : 1.20
 SEM [V] : 2018
Lock-in params
 Sensitivity [mV] : 0.030
 Phase [deg] : 74.0
 Time const [ms] : 0.3
 Prefilter [ms] : 100.0

   Start-End(eV)  Res(meV)  ms/pnt  Rate(eV/s) Aver
1     20-1800        223    300      0.744     1
Num of spectra : 1

  19.957     -517.8 
  20.181     -601.0 
  20.404     -596.8 
  20.627     -567.5 
  20.851     -528.0 
  21.074     -485.1 
  21.297     -446.1 
  21.521     -410.9 
  21.744     -375.9 
  21.967     -353.8 
  22.190     -333.7 
  22.414     -315.6 
  22.637     -293.8 
  22.860     -281.4 
  23.084     -262.2 
  23.307     -245.2 
  23.530     -235.3 
  23.754     -224.6 
  23.977     -213.1 
  24.200     -204.5 
  24.423     -196.7 
  24.647     -190.2 
  24.870     -181.7 
  25.093     -170.6 
  25.317     -153.8 
  25.540     -133.7 
  25.763     -117.6 
  25.987     -103.6 
  26.210      -93.8 
  26.433      -76.2 
  26.656      -59.8 
  26.880      -52.3 
  27.103      -38.3 
  27.326      -24.9 
  27.550      -15.7 
  27.773      -17.5 
  27.996      -17.6 
  28.219      -22.2 
  28.443      -37.4 
  28.666      -49.4 
  28.889      -62.9 
  29.113      -77.0 
  29.336      -94.2 
  29.559     -111.1 
  29.783     -130.9 
  30.006     -162.8 
  30.229     -193.2 
  30.452     -222.5 
  30.676     -246.0 
  30.899     -279.3 
  31.122     -311.2 
  31.346     -347.4 
  31.569     -379.3 
  31.792     -398.6 
  32.016     -426.6 
  32.239     -451.2 
  32.462     -470.5 
  32.685     -486.5 
  32.909     -507.3 
  33.132     -523.1 
  33.355     -527.7 
  33.579     -537.0 
  33.802     -546.7 
  34.025     -546.0 
  34.249     -549.8 
  34.472     -553.8 
  34.695     -551.3 
  34.918     -557.9 
  35.142     -562.9 
  35.365     -561.2 
  35.588     -569.6 
  35.812     -576.4 
  36.035     -600.6 
  36.258     -670.9 
  36.481     -706.5 
  36.705     -722.1 
  36.928     -721.5 
  37.151     -714.7 
  37.375     -711.3 
  37.598     -706.8 
  37.821     -702.5 
  38.045     -697.8 
  38.268     -698.5 
  38.491     -692.4 
  38.714     -683.5 
  38.938     -677.8 
  39.161     -668.9 
  39.384     -654.2 
  39.608     -642.9 
  39.831     -626.5 
  40.054     -608.8 
  40.278     -589.8 
  40.501     -576.8 
  40.724     -557.6 
  40.947     -541.8 
  41.171     -529.2 
  41.394     -517.5 
  41.617     -506.9 
  41.841     -490.3 
  42.064     -484.5 
  42.287     -467.3 
  42.511     -450.0 
  42.734     -437.4 
  42.957     -427.4 
  43.180     -420.8 
  43.404     -416.3 
  43.627     -401.1 
  43.850     -391.2 
  44.074     -391.0 
  44.297     -382.3 
  44.520     -376.9 
  44.743     -371.0 
  44.967     -360.1 
  45.190     -364.1 
  45.413     -363.3 
  45.637     -357.9 
  45.860     -348.0 
  46.083     -343.7 
  46.307     -339.8 
  46.530     -333.5 
  46.753     -332.2 
  46.976     -335.6 
  47.200     -329.6 
  47.423     -320.7 
  47.646     -323.1 
  47.870     -319.9 
  48.093     -316.2 
  48.316     -315.4 
  48.540     -312.2 
  48.763     -313.8 
  48.986     -317.2 
  49.209     -313.3 
  49.433     -310.0 
  49.656     -311.2 
  49.879     -310.9 
  50.103     -304.9 
  50.326     -300.4 
  50.549     -295.4 
  50.773     -298.7 
  50.996     -292.2 
  51.219     -289.1 
  51.442     -288.9 
  51.666     -287.3 
  51.889     -280.3 
  52.112     -272.8 
  52.336     -269.1 
  52.559     -264.1 
  52.782     -258.5 
  53.005     -253.5 
  53.229     -246.5 
  53.452     -241.9 
  53.675     -232.4 
  53.899     -230.2 
  54.122     -224.8 
  54.345     -224.1 
  54.569     -215.9 
  54.792     -208.1 
  55.015     -203.5 
  55.238     -197.2 
  55.462     -194.9 
  55.685     -190.3 
  55.908     -182.0 
  56.132     -183.0 
  56.355     -177.3 
  56.578     -175.5 
  56.802     -181.4 
  57.025     -177.8 
  57.248     -172.2 
  57.471     -171.1 
  57.695     -173.5 
  57.918     -169.1 
  58.141     -169.8 
  58.365     -167.8 
  58.588     -166.5 
  58.811     -165.0 
  59.035     -165.2 
  59.258     -170.7 
  59.481     -167.9 
  59.704     -165.8 
  59.928     -167.1 
  60.151     -168.7 
  60.374     -167.1 
  60.598     -167.6 
  60.821     -168.7 
  61.044     -169.6 
  61.267     -170.6 
  61.491     -172.2 
  61.714     -169.3 
  61.937     -165.8 
  62.161     -169.3 
  62.384     -169.2 
  62.607     -166.2 
  62.831     -160.4 
  63.054     -162.2 
  63.277     -164.9 
  63.500     -168.6 
  63.724     -169.1 
  63.947     -165.5 
  64.170     -160.2 
  64.394     -161.5 
  64.617     -161.7 
  64.840     -159.6 
  65.064     -159.5 
  65.287     -156.1 
  65.510     -156.1 
  65.733     -154.7 
  65.957     -145.6 
  66.180     -149.5 
  66.403     -150.4 
  66.627     -147.8 
  66.850     -151.6 
  67.073     -152.1 
  67.297     -149.7 
  67.520     -153.1 
  67.743     -156.6 
  67.966     -150.7 
  68.190     -148.0 
  68.413     -147.6 
  68.636     -146.6 
  68.860     -148.5 
  69.083     -150.5 
  69.306     -141.0 
  69.529     -138.6 
  69.753     -138.5 
  69.976     -138.7 
  70.199     -135.4 
  70.423     -132.5 
  70.646     -124.9 
  70.869     -117.7 
  71.093     -114.1 
  71.316     -106.9 
  71.539      -98.4 
  71.762      -89.2 
  71.986      -85.9 
  72.209      -78.4 
  72.432      -70.5 
  72.656      -65.7 
  72.879      -58.6 
  73.102      -55.6 
  73.326      -47.6 
  73.549      -40.0 
  73.772      -33.0 
  73.995      -27.6 
  74.219      -20.5 
  74.442      -11.8 
  74.665      -10.4 
  74.889       -6.2 
  75.112       -4.8 
  75.335      -10.1 
  75.559      -19.4 
  75.782      -24.1 
  76.005      -25.8 
  76.228      -35.7 
  76.452      -46.6 
  76.675      -58.1 
  76.898      -73.4 
  77.122      -87.2 
  77.345      -98.5 
  77.568     -113.2 
  77.792     -124.0 
  78.015     -132.3 
  78.238     -142.6 
  78.461     -157.2 
  78.685     -176.8 
  78.908     -191.6 
  79.131     -201.2 
  79.355     -214.5 
  79.578     -219.6 
  79.801     -221.4 
  80.024     -227.8 
  80.248     -233.7 
  80.471     -243.2 
  80.694     -248.8 
  80.918     -251.6 
  81.141     -251.3 
  81.364     -251.2 
  81.588     -257.5 
  81.811     -253.5 
  82.034     -250.9 
  82.257     -248.2 
  82.481     -248.0 
  82.704     -244.8 
  82.927     -242.7 
  83.151     -234.7 
  83.374     -229.2 
  83.597     -231.0 
  83.821     -224.3 
  84.044     -215.5 
  84.267     -207.7 
  84.490     -203.9 
  84.714     -205.0 
  84.937     -202.3 
  85.160     -192.8 
  85.384     -187.4 
  85.607     -185.3 
  85.830     -179.9 
  86.054     -174.0 
  86.277     -166.2 
  86.500     -161.8 
  86.723     -160.9 
  86.947     -158.7 
  87.170     -154.3 
  87.393     -151.6 
  87.617     -144.3 
  87.840     -139.8 
  88.063     -135.7 
  88.286     -129.8 
  88.510     -127.3 
  88.733     -124.5 
  88.956     -118.5 
  89.180     -119.2 
  89.403     -122.8 
  89.626     -124.5 
  89.850     -121.6 
  90.073     -119.7 
  90.296     -116.8 
  90.519     -115.8 
  90.743     -115.6 
  90.966     -114.6 
  91.189     -113.7 
  91.413     -114.7 
  91.636     -109.9 
  91.859     -106.5 
  92.083     -102.3 
  92.306      -97.8 
  92.529      -99.2 
  92.752      -96.3 
  92.976      -87.7 
  93.199      -80.3 
  93.422      -71.9 
  93.646      -70.7 
  93.869      -71.7 
  94.092      -67.3 
  94.316      -59.3 
  94.539      -53.6 
  94.762      -46.6 
  94.985      -41.2 
  95.209      -35.0 
  95.432      -27.5 
  95.655      -23.3 
  95.879      -17.5 
  96.102       -8.6 
  96.325       -3.3 
  96.548       -1.6 
  96.772       -0.6 
  96.995      -12.6 
  97.218       -9.7 
  97.442       -5.2 
  97.665        0.3 
  97.888        1.1 
  98.112        3.4 
  98.335        3.5 
  98.558        1.6 
  98.781       -2.0 
  99.005       -2.7 
  99.228       -5.7 
  99.451       -7.0 
  99.675      -14.7 
  99.898      -25.9 
 100.121      -31.4 
 100.345      -36.7 
 100.568      -45.3 
 100.791      -55.9 
 101.014      -61.4 
 101.238      -63.8 
 101.461      -75.3 
 101.684      -81.7 
 101.908      -87.3 
 102.131      -91.6 
 102.354      -97.3 
 102.578     -112.8 
 102.801     -115.7 
 103.024     -117.8 
 103.247     -118.3 
 103.471     -121.7 
 103.694     -125.9 
 103.917     -126.8 
 104.141     -125.5 
 104.364     -126.2 
 104.587     -122.6 
 104.810     -117.2 
 105.034     -117.0 
 105.257     -114.2 
 105.480     -109.9 
 105.704     -108.6 
 105.927     -101.7 
 106.150      -97.9 
 106.374      -97.2 
 106.597      -95.8 
 106.820      -89.2 
 107.043      -85.1 
 107.267      -89.0 
 107.490      -88.0 
 107.713      -87.2 
 107.937      -89.7 
 108.160      -87.8 
 108.383      -93.3 
 108.607      -89.6 
 108.830      -91.6 
 109.053      -97.0 
 109.276      -99.6 
 109.500     -103.9 
 109.723     -105.6 
 109.946     -106.9 
 110.170     -108.9 
 110.393     -115.3 
 110.616     -123.2 
 110.840     -126.0 
 111.063     -128.2 
 111.286     -135.7 
 111.509     -140.8 
 111.733     -150.1 
 111.956     -152.0 
 112.179     -156.7 
 112.403     -164.2 
 112.626     -166.7 
 112.849     -167.8 
 113.072     -166.4 
 113.296     -171.3 
 113.519     -168.9 
 113.742     -165.1 
 113.966     -161.3 
 114.189     -159.6 
 114.412     -149.0 
 114.636     -147.6 
 114.859     -142.7 
 115.082     -133.4 
 115.305     -124.9 
 115.529     -120.0 
 115.752     -115.6 
 115.975     -108.7 
 116.199     -101.7 
 116.422      -94.3 
 116.645      -88.1 
 116.869      -84.4 
 117.092      -79.5 
 117.315      -70.7 
 117.538      -60.6 
 117.762      -56.3 
 117.985      -48.0 
 118.208      -41.1 
 118.432      -37.2 
 118.655      -34.3 
 118.878      -25.7 
 119.102      -17.3 
 119.325      -17.6 
 119.548      -19.2 
 119.771      -14.5 
 119.995      -10.3 
 120.218       -9.1 
 120.441      -19.6 
 120.665      -21.6 
 120.888      -17.6 
 121.111      -15.2 
 121.334      -15.2 
 121.558      -14.2 
 121.781      -10.5 
 122.004      -12.6 
 122.228      -20.3 
 122.451      -21.1 
 122.674      -17.6 
 122.898      -11.1 
 123.121      -11.1 
 123.344      -19.7 
 123.567      -22.0 
 123.791      -22.4 
 124.014      -24.7 
 124.237      -33.4 
 124.461      -38.9 
 124.684      -47.0 
 124.907      -54.5 
 125.131      -76.6 
 125.354      -88.5 
 125.577      -94.4 
 125.800     -100.5 
 126.024     -108.9 
 126.247     -125.4 
 126.470     -134.3 
 126.694     -144.8 
 126.917     -156.6 
 127.140     -165.1 
 127.364     -170.1 
 127.587     -176.5 
 127.810     -179.1 
 128.033     -183.2 
 128.257     -184.9 
 128.480     -183.1 
 128.703     -184.7 
 128.927     -180.5 
 129.150     -174.5 
 129.373     -167.0 
 129.596     -161.3 
 129.820     -155.5 
 130.043     -150.2 
 130.266     -138.7 
 130.490     -132.8 
 130.713     -131.7 
 130.936     -121.3 
 131.160     -117.1 
 131.383     -112.8 
 131.606     -109.6 
 131.829     -104.7 
 132.053     -103.2 
 132.276      -98.0 
 132.499      -92.8 
 132.723      -95.2 
 132.946      -90.8 
 133.169      -87.3 
 133.393      -89.3 
 133.616      -87.1 
 133.839      -84.4 
 134.062      -91.8 
 134.286      -89.4 
 134.509      -90.4 
 134.732      -89.8 
 134.956      -77.7 
 135.179      -77.1 
 135.402      -78.2 
 135.626      -78.6 
 135.849      -78.7 
 136.072      -75.4 
 136.295      -80.3 
 136.519      -80.4 
 136.742      -79.3 
 136.965      -82.6 
 137.189      -82.4 
 137.412      -80.3 
 137.635      -81.7 
 137.858      -74.4 
 138.082      -73.5 
 138.305      -75.4 
 138.528      -76.5 
 138.752      -70.2 
 138.975      -63.6 
 139.198      -61.1 
 139.422      -59.2 
 139.645      -56.1 
 139.868      -55.6 
 140.091      -53.1 
 140.315      -55.6 
 140.538      -55.8 
 140.761      -58.5 
 140.985      -58.4 
 141.208      -57.0 
 141.431      -55.9 
 141.655      -56.5 
 141.878      -52.1 
 142.101      -53.0 
 142.324      -55.6 
 142.548      -55.1 
 142.771      -53.0 
 142.994      -49.2 
 143.218      -50.9 
 143.441      -57.5 
 143.664      -57.6 
 143.888      -57.2 
 144.111      -57.5 
 144.334      -52.6 
 144.557      -57.8 
 144.781      -61.5 
 145.004      -58.3 
 145.227      -57.6 
 145.451      -64.2 
 145.674      -66.7 
 145.897      -64.6 
 146.120      -68.8 
 146.344      -66.4 
 146.567      -61.4 
 146.790      -65.7 
 147.014      -72.7 
 147.237      -77.1 
 147.460      -80.2 
 147.684      -82.5 
 147.907      -78.2 
 148.130      -80.4 
 148.353      -82.4 
 148.577      -81.7 
 148.800      -85.6 
 149.023      -86.1 
 149.247      -81.2 
 149.470      -79.2 
 149.693      -80.2 
 149.917      -78.4 
 150.140      -71.1 
 150.363      -69.8 
 150.586      -68.2 
 150.810      -71.8 
 151.033      -72.7 
 151.256      -71.6 
 151.480      -68.5 
 151.703      -69.8 
 151.926      -65.0 
 152.150      -59.9 
 152.373      -57.1 
 152.596      -58.2 
 152.819      -55.1 
 153.043      -57.0 
 153.266      -60.6 
 153.489      -55.5 
 153.713      -59.1 
 153.936      -52.4 
 154.159      -47.8 
 154.382      -51.1 
 154.606      -56.8 
 154.829      -55.9 
 155.052      -57.9 
 155.276      -58.7 
 155.499      -58.8 
 155.722      -61.6 
 155.946      -61.6 
 156.169      -59.1 
 156.392      -59.4 
 156.615      -56.8 
 156.839      -58.8 
 157.062      -56.0 
 157.285      -56.1 
 157.509      -61.6 
 157.732      -60.9 
 157.955      -59.9 
 158.179      -59.2 
 158.402      -66.5 
 158.625      -67.4 
 158.848      -67.4 
 159.072      -71.3 
 159.295      -73.4 
 159.518      -73.9 
 159.742      -73.2 
 159.965      -68.6 
 160.188      -70.2 
 160.412      -69.5 
 160.635      -73.3 
 160.858      -75.7 
 161.081      -76.8 
 161.305      -74.6 
 161.528      -76.4 
 161.751      -78.3 
 161.975      -76.0 
 162.198      -78.9 
 162.421      -79.7 
 162.644      -78.4 
 162.868      -80.4 
 163.091      -80.6 
 163.314      -78.7 
 163.538      -77.3 
 163.761      -76.2 
 163.984      -77.4 
 164.208      -73.2 
 164.431      -74.1 
 164.654      -73.2 
 164.877      -72.9 
 165.101      -72.9 
 165.324      -74.0 
 165.547      -80.0 
 165.771      -80.1 
 165.994      -73.9 
 166.217      -68.8 
 166.441      -65.3 
 166.664      -67.6 
 166.887      -62.9 
 167.110      -62.6 
 167.334      -63.4 
 167.557      -63.5 
 167.780      -65.6 
 168.004      -66.3 
 168.227      -62.4 
 168.450      -60.0 
 168.674      -61.0 
 168.897      -60.4 
 169.120      -64.0 
 169.343      -64.7 
 169.567      -63.1 
 169.790      -64.5 
 170.013      -70.7 
 170.237      -75.8 
 170.460      -74.2 
 170.683      -72.8 
 170.906      -70.9 
 171.130      -71.6 
 171.353      -81.0 
 171.576      -82.3 
 171.800      -83.0 
 172.023      -75.4 
 172.246      -77.0 
 172.470      -81.9 
 172.693      -84.1 
 172.916      -86.9 
 173.139      -84.0 
 173.363      -82.8 
 173.586      -82.8 
 173.809      -83.9 
 174.033      -83.1 
 174.256      -85.1 
 174.479      -84.0 
 174.703      -87.9 
 174.926      -89.7 
 175.149      -93.3 
 175.372      -88.1 
 175.596      -86.3 
 175.819      -85.9 
 176.042      -84.8 
 176.266      -85.8 
 176.489      -93.5 
 176.712      -95.6 
 176.936      -91.2 
 177.159      -91.8 
 177.382      -91.6 
 177.605      -87.2 
 177.829      -83.2 
 178.052      -84.1 
 178.275      -89.3 
 178.499      -84.4 
 178.722      -85.4 
 178.945      -88.6 
 179.169      -85.5 
 179.392      -83.4 
 179.615      -76.9 
 179.838      -67.6 
 180.062      -69.0 
 180.285      -71.9 
 180.508      -74.3 
 180.732      -76.6 
 180.955      -71.8 
 181.178      -72.4 
 181.401      -73.6 
 181.625      -74.6 
 181.848      -72.8 
 182.071      -69.7 
 182.295      -75.1 
 182.518      -79.2 
 182.741      -79.7 
 182.965      -83.9 
 183.188      -85.2 
 183.411      -83.6 
 183.634      -82.1 
 183.858      -84.1 
 184.081      -85.9 
 184.304      -84.2 
 184.528      -82.6 
 184.751      -81.7 
 184.974      -80.6 
 185.198      -81.3 
 185.421      -85.7 
 185.644      -84.2 
 185.867      -83.0 
 186.091      -81.4 
 186.314      -83.8 
 186.537      -85.1 
 186.761      -83.8 
 186.984      -79.5 
 187.207      -78.8 
 187.431      -76.9 
 187.654      -76.6 
 187.877      -77.2 
 188.100      -73.2 
 188.324      -74.5 
 188.547      -75.7 
 188.770      -75.4 
 188.994      -76.9 
 189.217      -74.5 
 189.440      -69.1 
 189.663      -64.7 
 189.887      -66.7 
 190.110      -66.5 
 190.333      -65.2 
 190.557      -66.5 
 190.780      -64.8 
 191.003      -64.4 
 191.227      -63.9 
 191.450      -66.5 
 191.673      -63.4 
 191.896      -64.6 
 192.120      -60.6 
 192.343      -61.2 
 192.566      -60.7 
 192.790      -59.2 
 193.013      -56.8 
 193.236      -63.3 
 193.460      -63.8 
 193.683      -62.7 
 193.906      -65.9 
 194.129      -67.1 
 194.353      -65.6 
 194.576      -64.4 
 194.799      -63.4 
 195.023      -63.6 
 195.246      -60.8 
 195.469      -62.9 
 195.693      -64.4 
 195.916      -60.0 
 196.139      -58.9 
 196.362      -58.6 
 196.586      -58.5 
 196.809      -58.4 
 197.032      -58.9 
 197.256      -60.2 
 197.479      -63.1 
 197.702      -58.4 
 197.925      -57.0 
 198.149      -56.5 
 198.372      -57.0 
 198.595      -51.2 
 198.819      -51.7 
 199.042      -54.5 
 199.265      -59.5 
 199.489      -56.3 
 199.712      -53.7 
 199.935      -53.8 
 200.158      -54.3 
 200.382      -55.5 
 200.605      -54.8 
 200.828      -55.1 
 201.052      -50.8 
 201.275      -46.1 
 201.498      -53.8 
 201.722      -59.8 
 201.945      -61.2 
 202.168      -58.3 
 202.391      -56.9 
 202.615      -56.8 
 202.838      -62.9 
 203.061      -64.5 
 203.285      -64.3 
 203.508      -59.9 
 203.731      -57.6 
 203.955      -57.7 
 204.178      -55.3 
 204.401      -51.0 
 204.624      -54.5 
 204.848      -56.6 
 205.071      -58.8 
 205.294      -58.3 
 205.518      -59.4 
 205.741      -56.4 
 205.964      -56.0 
 206.187      -57.6 
 206.411      -51.1 
 206.634      -55.4 
 206.857      -59.5 
 207.081      -53.9 
 207.304      -54.7 
 207.527      -51.3 
 207.751      -49.1 
 207.974      -53.7 
 208.197      -51.6 
 208.420      -51.5 
 208.644      -55.7 
 208.867      -59.7 
 209.090      -63.7 
 209.314      -60.2 
 209.537      -57.6 
 209.760      -58.4 
 209.984      -54.2 
 210.207      -53.9 
 210.430      -53.8 
 210.653      -60.0 
 210.877      -57.8 
 211.100      -55.3 
 211.323      -51.7 
 211.547      -50.8 
 211.770      -52.5 
 211.993      -55.3 
 212.217      -54.6 
 212.440      -54.1 
 212.663      -57.3 
 212.886      -56.6 
 213.110      -60.6 
 213.333      -60.4 
 213.556      -58.0 
 213.780      -53.1 
 214.003      -50.6 
 214.226      -47.5 
 214.449      -50.2 
 214.673      -47.4 
 214.896      -48.7 
 215.119      -53.5 
 215.343      -53.7 
 215.566      -52.3 
 215.789      -53.9 
 216.013      -57.3 
 216.236      -53.8 
 216.459      -55.8 
 216.682      -52.0 
 216.906      -58.0 
 217.129      -50.9 
 217.352      -47.1 
 217.576      -52.2 
 217.799      -55.3 
 218.022      -54.6 
 218.246      -55.8 
 218.469      -56.4 
 218.692      -53.5 
 218.915      -49.5 
 219.139      -53.4 
 219.362      -51.3 
 219.585      -49.7 
 219.809      -52.4 
 220.032      -53.7 
 220.255      -51.1 
 220.479      -54.2 
 220.702      -53.2 
 220.925      -55.5 
 221.148      -56.2 
 221.372      -54.1 
 221.595      -50.3 
 221.818      -51.5 
 222.042      -52.7 
 222.265      -52.1 
 222.488      -50.8 
 222.711      -53.9 
 222.935      -49.2 
 223.158      -48.2 
 223.381      -52.1 
 223.605      -53.5 
 223.828      -52.7 
 224.051      -52.6 
 224.275      -56.3 
 224.498      -56.3 
 224.721      -50.7 
 224.944      -49.8 
 225.168      -48.7 
 225.391      -49.0 
 225.614      -49.9 
 225.838      -52.3 
 226.061      -58.1 
 226.284      -58.3 
 226.508      -54.2 
 226.731      -55.0 
 226.954      -54.9 
 227.177      -51.7 
 227.401      -52.3 
 227.624      -49.3 
 227.847      -48.8 
 228.071      -48.2 
 228.294      -50.0 
 228.517      -51.5 
 228.741      -52.8 
 228.964      -51.9 
 229.187      -52.5 
 229.410      -59.8 
 229.634      -62.1 
 229.857      -59.0 
 230.080      -56.1 
 230.304      -53.8 
 230.527      -55.3 
 230.750      -52.4 
 230.973      -51.9 
 231.197      -52.5 
 231.420      -51.1 
 231.643      -51.6 
 231.867      -48.8 
 232.090      -49.0 
 232.313      -57.4 
 232.537      -55.4 
 232.760      -56.7 
 232.983      -60.0 
 233.206      -58.2 
 233.430      -52.1 
 233.653      -51.5 
 233.876      -47.7 
 234.100      -49.6 
 234.323      -47.6 
 234.546      -45.4 
 234.770      -43.9 
 234.993      -48.6 
 235.216      -48.0 
 235.439      -46.0 
 235.663      -47.0 
 235.886      -44.6 
 236.109      -46.0 
 236.333      -43.4 
 236.556      -42.8 
 236.779      -42.7 
 237.003      -45.0 
 237.226      -46.8 
 237.449      -44.5 
 237.672      -44.5 
 237.896      -41.5 
 238.119      -42.5 
 238.342      -40.7 
 238.566      -41.0 
 238.789      -36.0 
 239.012      -44.0 
 239.235      -42.9 
 239.459      -41.2 
 239.682      -38.8 
 239.905      -36.9 
 240.129      -31.8 
 240.352      -29.2 
 240.575      -31.9 
 240.799      -29.5 
 241.022      -31.0 
 241.245      -35.8 
 241.468      -37.5 
 241.692      -38.7 
 241.915      -37.8 
 242.138      -40.1 
 242.362      -40.2 
 242.585      -41.3 
 242.808      -46.1 
 243.032      -47.2 
 243.255      -45.9 
 243.478      -41.0 
 243.701      -38.3 
 243.925      -39.6 
 244.148      -41.6 
 244.371      -44.4 
 244.595      -48.7 
 244.818      -50.9 
 245.041      -52.4 
 245.265      -54.9 
 245.488      -55.5 
 245.711      -50.5 
 245.934      -55.5 
 246.158      -57.6 
 246.381      -55.3 
 246.604      -57.0 
 246.828      -55.2 
 247.051      -54.2 
 247.274      -55.2 
 247.497      -59.5 
 247.721      -59.3 
 247.944      -58.7 
 248.167      -51.6 
 248.391      -51.4 
 248.614      -55.7 
 248.837      -53.7 
 249.061      -57.3 
 249.284      -55.2 
 249.507      -54.7 
 249.730      -50.5 
 249.954      -51.0 
 250.177      -53.3 
 250.400      -52.0 
 250.624      -48.9 
 250.847      -43.0 
 251.070      -40.3 
 251.294      -36.8 
 251.517      -35.2 
 251.740      -30.1 
 251.963      -25.3 
 252.187      -21.7 
 252.410      -21.7 
 252.633      -18.3 
 252.857      -15.1 
 253.080      -13.5 
 253.303      -15.6 
 253.527      -16.1 
 253.750      -14.8 
 253.973      -10.8 
 254.196      -15.4 
 254.420      -17.9 
 254.643      -17.3 
 254.866      -19.1 
 255.090      -15.5 
 255.313      -16.2 
 255.536      -16.3 
 255.759      -12.7 
 255.983      -18.5 
 256.206      -22.3 
 256.429      -22.5 
 256.653      -26.3 
 256.876      -31.0 
 257.099      -35.6 
 257.323      -37.6 
 257.546      -35.4 
 257.769      -33.7 
 257.992      -33.6 
 258.216      -35.0 
 258.439      -42.3 
 258.662      -38.8 
 258.886      -34.6 
 259.109      -40.9 
 259.332      -42.0 
 259.556      -37.0 
 259.779      -36.7 
 260.002      -42.3 
 260.225      -45.2 
 260.449      -48.2 
 260.672      -47.7 
 260.895      -42.2 
 261.119      -36.0 
 261.342      -37.8 
 261.565      -33.5 
 261.789      -40.9 
 262.012      -40.6 
 262.235      -38.9 
 262.458      -44.7 
 262.682      -43.7 
 262.905      -41.5 
 263.128      -44.5 
 263.352      -45.8 
 263.575      -43.3 
 263.798      -44.3 
 264.021      -47.0 
 264.245      -48.9 
 264.468      -47.4 
 264.691      -52.1 
 264.915      -52.8 
 265.138      -53.8 
 265.361      -53.6 
 265.585      -56.3 
 265.808      -59.4 
 266.031      -63.0 
 266.254      -63.1 
 266.478      -57.8 
 266.701      -61.4 
 266.924      -62.7 
 267.148      -62.8 
 267.371      -69.4 
 267.594      -75.5 
 267.818      -77.0 
 268.041      -79.9 
 268.264      -89.2 
 268.487      -97.9 
 268.711      -99.4 
 268.934     -106.2 
 269.157     -109.7 
 269.381     -110.5 
 269.604     -115.1 
 269.827     -117.5 
 270.051     -123.6 
 270.274     -127.5 
 270.497     -131.6 
 270.720     -136.6 
 270.944     -138.2 
 271.167     -144.8 
 271.390     -150.8 
 271.614     -157.9 
 271.837     -156.9 
 272.060     -160.9 
 272.284     -171.8 
 272.507     -175.6 
 272.730     -179.7 
 272.953     -184.0 
 273.177     -184.3 
 273.400     -187.6 
 273.623     -190.5 
 273.847     -194.2 
 274.070     -200.5 
 274.293     -209.6 
 274.516     -212.5 
 274.740     -206.4 
 274.963     -201.4 
 275.186     -207.9 
 275.410     -216.6 
 275.633     -214.9 
 275.856     -212.5 
 276.080     -215.2 
 276.303     -218.7 
 276.526     -221.0 
 276.749     -219.8 
 276.973     -222.4 
 277.196     -224.3 
 277.419     -222.5 
 277.643     -221.1 
 277.866     -225.0 
 278.089     -221.2 
 278.313     -220.8 
 278.536     -214.3 
 278.759     -212.8 
 278.982     -209.9 
 279.206     -210.2 
 279.429     -209.4 
 279.652     -207.8 
 279.876     -201.6 
 280.099     -195.6 
 280.322     -189.6 
 280.546     -189.8 
 280.769     -184.2 
 280.992     -184.1 
 281.215     -181.7 
 281.439     -174.6 
 281.662     -171.5 
 281.885     -168.0 
 282.109     -161.9 
 282.332     -159.2 
 282.555     -156.2 
 282.778     -149.7 
 283.002     -142.5 
 283.225     -139.0 
 283.448     -140.6 
 283.672     -139.1 
 283.895     -134.4 
 284.118     -132.1 
 284.342     -133.1 
 284.565     -128.7 
 284.788     -127.1 
 285.011     -116.8 
 285.235     -113.4 
 285.458     -113.8 
 285.681     -110.6 
 285.905     -110.2 
 286.128     -105.0 
 286.351      -97.5 
 286.575      -89.7 
 286.798      -88.8 
 287.021      -87.9 
 287.244      -89.0 
 287.468      -80.9 
 287.691      -74.7 
 287.914      -73.9 
 288.138      -76.3 
 288.361      -73.6 
 288.584      -73.0 
 288.808      -72.3 
 289.031      -69.5 
 289.254      -73.8 
 289.477      -73.6 
 289.701      -71.3 
 289.924      -73.2 
 290.147      -70.4 
 290.371      -69.8 
 290.594      -74.0 
 290.817      -70.0 
 291.040      -68.0 
 291.264      -67.8 
 291.487      -69.4 
 291.710      -69.3 
 291.934      -67.7 
 292.157      -70.3 
 292.380      -73.3 
 292.604      -70.9 
 292.827      -69.9 
 293.050      -71.1 
 293.273      -72.5 
 293.497      -71.8 
 293.720      -72.5 
 293.943      -73.8 
 294.167      -67.0 
 294.390      -66.1 
 294.613      -69.6 
 294.837      -69.7 
 295.060      -69.7 
 295.283      -70.3 
 295.506      -69.7 
 295.730      -70.1 
 295.953      -72.7 
 296.176      -72.1 
 296.400      -71.1 
 296.623      -73.6 
 296.846      -79.3 
 297.070      -81.7 
 297.293      -73.7 
 297.516      -74.1 
 297.739      -77.6 
 297.963      -68.1 
 298.186      -68.0 
 298.409      -69.3 
 298.633      -69.5 
 298.856      -66.3 
 299.079      -62.0 
 299.302      -64.6 
 299.526      -64.7 
 299.749      -69.3 
 299.972      -70.1 
 300.196      -67.9 
 300.419      -65.3 
 300.642      -64.6 
 300.866      -67.0 
 301.089      -67.6 
 301.312      -64.7 
 301.535      -60.8 
 301.759      -67.1 
 301.982      -68.2 
 302.205      -69.6 
 302.429      -67.7 
 302.652      -71.3 
 302.875      -68.1 
 303.099      -66.2 
 303.322      -70.4 
 303.545      -72.1 
 303.768      -71.4 
 303.992      -73.5 
 304.215      -71.4 
 304.438      -73.0 
 304.662      -73.8 
 304.885      -71.6 
 305.108      -65.5 
 305.332      -62.9 
 305.555      -66.3 
 305.778      -66.1 
 306.001      -66.0 
 306.225      -67.4 
 306.448      -67.7 
 306.671      -68.0 
 306.895      -71.8 
 307.118      -70.1 
 307.341      -69.6 
 307.564      -66.8 
 307.788      -69.1 
 308.011      -67.5 
 308.234      -70.1 
 308.458      -67.0 
 308.681      -64.5 
 308.904      -66.2 
 309.128      -65.4 
 309.351      -69.5 
 309.574      -69.1 
 309.797      -67.4 
 310.021      -74.0 
 310.244      -73.4 
 310.467      -71.7 
 310.691      -67.7 
 310.914      -70.3 
 311.137      -66.5 
 311.361      -66.1 
 311.584      -69.5 
 311.807      -69.5 
 312.030      -73.9 
 312.254      -73.8 
 312.477      -70.7 
 312.700      -71.7 
 312.924      -81.4 
 313.147      -80.9 
 313.370      -71.4 
 313.594      -68.9 
 313.817      -73.8 
 314.040      -72.0 
 314.263      -70.2 
 314.487      -73.3 
 314.710      -71.8 
 314.933      -70.0 
 315.157      -69.3 
 315.380      -67.4 
 315.603      -66.5 
 315.826      -71.7 
 316.050      -73.5 
 316.273      -73.0 
 316.496      -72.5 
 316.720      -64.0 
 316.943      -63.9 
 317.166      -69.5 
 317.390      -71.3 
 317.613      -70.0 
 317.836      -68.4 
 318.059      -65.5 
 318.283      -58.4 
 318.506      -61.1 
 318.729      -68.1 
 318.953      -68.9 
 319.176      -69.6 
 319.399      -69.7 
 319.623      -72.1 
 319.846      -72.6 
 320.069      -72.1 
 320.292      -70.3 
 320.516      -71.9 
 320.739      -74.5 
 320.962      -74.2 
 321.186      -68.5 
 321.409      -65.8 
 321.632      -65.7 
 321.856      -68.0 
 322.079      -68.2 
 322.302      -69.6 
 322.525      -71.7 
 322.749      -69.8 
 322.972      -70.7 
 323.195      -74.6 
 323.419      -72.2 
 323.642      -68.7 
 323.865      -66.9 
 324.088      -65.1 
 324.312      -71.1 
 324.535      -69.6 
 324.758      -71.1 
 324.982      -72.2 
 325.205      -79.5 
 325.428      -75.8 
 325.652      -69.7 
 325.875      -66.9 
 326.098      -70.4 
 326.321      -69.2 
 326.545      -67.0 
 326.768      -63.6 
 326.991      -60.8 
 327.215      -60.0 
 327.438      -62.1 
 327.661      -66.4 
 327.885      -71.1 
 328.108      -77.5 
 328.331      -76.5 
 328.554      -72.3 
 328.778      -71.8 
 329.001      -72.4 
 329.224      -69.9 
 329.448      -71.6 
 329.671      -72.6 
 329.894      -74.5 
 330.118      -77.7 
 330.341      -81.1 
 330.564      -79.4 
 330.787      -76.6 
 331.011      -69.5 
 331.234      -72.0 
 331.457      -76.7 
 331.681      -80.4 
 331.904      -74.8 
 332.127      -68.6 
 332.350      -69.5 
 332.574      -69.7 
 332.797      -72.7 
 333.020      -72.3 
 333.244      -70.2 
 333.467      -66.9 
 333.690      -66.1 
 333.914      -65.8 
 334.137      -61.0 
 334.360      -63.8 
 334.583      -66.5 
 334.807      -68.7 
 335.030      -67.0 
 335.253      -68.8 
 335.477      -70.2 
 335.700      -72.8 
 335.923      -71.7 
 336.147      -74.7 
 336.370      -75.4 
 336.593      -76.1 
 336.816      -73.5 
 337.040      -67.5 
 337.263      -64.8 
 337.486      -69.0 
 337.710      -68.1 
 337.933      -69.5 
 338.156      -71.4 
 338.380      -70.3 
 338.603      -72.1 
 338.826      -72.8 
 339.049      -68.8 
 339.273      -68.8 
 339.496      -68.5 
 339.719      -68.7 
 339.943      -71.6 
 340.166      -74.4 
 340.389      -77.9 
 340.612      -73.9 
 340.836      -72.6 
 341.059      -71.1 
 341.282      -67.8 
 341.506      -65.5 
 341.729      -66.7 
 341.952      -70.2 
 342.176      -74.3 
 342.399      -72.7 
 342.622      -73.8 
 342.845      -72.0 
 343.069      -63.7 
 343.292      -64.8 
 343.515      -65.6 
 343.739      -67.5 
 343.962      -72.2 
 344.185      -71.4 
 344.409      -67.0 
 344.632      -69.5 
 344.855      -77.8 
 345.078      -78.0 
 345.302      -80.0 
 345.525      -72.0 
 345.748      -73.7 
 345.972      -73.9 
 346.195      -68.4 
 346.418      -66.1 
 346.642      -66.7 
 346.865      -63.9 
 347.088      -62.3 
 347.311      -63.7 
 347.535      -68.8 
 347.758      -71.0 
 347.981      -73.8 
 348.205      -71.1 
 348.428      -73.4 
 348.651      -70.5 
 348.874      -70.3 
 349.098      -68.1 
 349.321      -64.6 
 349.544      -65.8 
 349.768      -64.8 
 349.991      -66.2 
 350.214      -63.0 
 350.438      -64.8 
 350.661      -57.9 
 350.884      -66.4 
 351.107      -69.4 
 351.331      -69.7 
 351.554      -71.6 
 351.777      -71.0 
 352.001      -67.5 
 352.224      -73.6 
 352.447      -70.3 
 352.671      -69.0 
 352.894      -74.3 
 353.117      -74.9 
 353.340      -75.3 
 353.564      -74.5 
 353.787      -72.9 
 354.010      -69.5 
 354.234      -64.0 
 354.457      -62.2 
 354.680      -63.8 
 354.904      -71.5 
 355.127      -72.3 
 355.350      -68.9 
 355.573      -62.6 
 355.797      -67.3 
 356.020      -73.7 
 356.243      -71.8 
 356.467      -71.0 
 356.690      -67.7 
 356.913      -66.4 
 357.136      -65.1 
 357.360      -62.6 
 357.583      -67.5 
 357.806      -74.5 
 358.030      -72.0 
 358.253      -70.8 
 358.476      -69.2 
 358.700      -64.1 
 358.923      -62.5 
 359.146      -67.4 
 359.369      -66.5 
 359.593      -63.6 
 359.816      -66.9 
 360.039      -69.4 
 360.263      -70.9 
 360.486      -66.0 
 360.709      -71.8 
 360.933      -72.3 
 361.156      -69.8 
 361.379      -67.4 
 361.602      -66.1 
 361.826      -65.3 
 362.049      -65.8 
 362.272      -71.6 
 362.496      -69.9 
 362.719      -64.6 
 362.942      -66.4 
 363.166      -67.5 
 363.389      -65.9 
 363.612      -66.6 
 363.835      -62.0 
 364.059      -64.3 
 364.282      -67.3 
 364.505      -69.1 
 364.729      -68.9 
 364.952      -72.4 
 365.175      -71.7 
 365.398      -69.0 
 365.622      -68.6 
 365.845      -69.7 
 366.068      -68.5 
 366.292      -69.2 
 366.515      -70.0 
 366.738      -70.1 
 366.962      -64.0 
 367.185      -61.9 
 367.408      -66.1 
 367.631      -67.7 
 367.855      -70.3 
 368.078      -69.5 
 368.301      -65.4 
 368.525      -65.5 
 368.748      -68.9 
 368.971      -68.0 
 369.195      -63.5 
 369.418      -67.6 
 369.641      -70.7 
 369.864      -74.8 
 370.088      -75.7 
 370.311      -68.0 
 370.534      -66.7 
 370.758      -70.4 
 370.981      -70.1 
 371.204      -68.9 
 371.428      -64.1 
 371.651      -63.2 
 371.874      -69.3 
 372.097      -70.2 
 372.321      -72.2 
 372.544      -71.9 
 372.767      -70.2 
 372.991      -69.5 
 373.214      -71.3 
 373.437      -77.9 
 373.661      -70.0 
 373.884      -68.9 
 374.107      -72.5 
 374.330      -73.4 
 374.554      -74.2 
 374.777      -72.4 
 375.000      -70.1 
 375.224      -69.3 
 375.447      -70.6 
 375.670      -70.8 
 375.893      -70.5 
 376.117      -61.2 
 376.340      -64.2 
 376.563      -70.3 
 376.787      -69.1 
 377.010      -68.0 
 377.233      -71.4 
 377.457      -75.6 
 377.680      -68.6 
 377.903      -65.9 
 378.126      -63.4 
 378.350      -64.4 
 378.573      -65.7 
 378.796      -65.1 
 379.020      -64.6 
 379.243      -65.5 
 379.466      -71.4 
 379.690      -72.9 
 379.913      -70.5 
 380.136      -68.6 
 380.359      -62.7 
 380.583      -62.8 
 380.806      -62.3 
 381.029      -66.3 
 381.253      -71.9 
 381.476      -77.4 
 381.699      -74.3 
 381.923      -68.2 
 382.146      -70.3 
 382.369      -68.6 
 382.592      -70.3 
 382.816      -73.2 
 383.039      -74.7 
 383.262      -69.0 
 383.486      -66.9 
 383.709      -63.5 
 383.932      -67.7 
 384.155      -69.0 
 384.379      -73.5 
 384.602      -70.6 
 384.825      -70.8 
 385.049      -69.2 
 385.272      -66.8 
 385.495      -72.3 
 385.719      -69.3 
 385.942      -70.2 
 386.165      -69.7 
 386.388      -66.0 
 386.612      -65.4 
 386.835      -73.5 
 387.058      -71.3 
 387.282      -69.2 
 387.505      -67.6 
 387.728      -66.9 
 387.952      -67.8 
 388.175      -69.4 
 388.398      -68.9 
 388.621      -67.0 
 388.845      -68.7 
 389.068      -66.9 
 389.291      -66.8 
 389.515      -68.4 
 389.738      -68.1 
 389.961      -68.7 
 390.185      -63.7 
 390.408      -61.9 
 390.631      -69.2 
 390.854      -64.9 
 391.078      -64.2 
 391.301      -62.8 
 391.524      -65.1 
 391.748      -66.2 
 391.971      -67.3 
 392.194      -65.4 
 392.417      -67.6 
 392.641      -68.0 
 392.864      -71.3 
 393.087      -64.1 
 393.311      -61.6 
 393.534      -67.5 
 393.757      -74.5 
 393.981      -73.7 
 394.204      -65.2 
 394.427      -59.4 
 394.650      -66.0 
 394.874      -66.3 
 395.097      -69.1 
 395.320      -73.4 
 395.544      -67.0 
 395.767      -62.1 
 395.990      -62.4 
 396.214      -64.7 
 396.437      -71.2 
 396.660      -76.0 
 396.883      -74.3 
 397.107      -66.9 
 397.330      -61.2 
 397.553      -60.3 
 397.777      -63.2 
 398.000      -64.1 
 398.223      -65.7 
 398.447      -60.8 
 398.670      -61.5 
 398.893      -62.9 
 399.116      -62.8 
 399.340      -61.6 
 399.563      -62.2 
 399.786      -66.0 
 400.010      -67.0 
 400.233      -68.7 
 400.456      -71.7 
 400.679      -75.7 
 400.903      -71.9 
 401.126      -69.5 
 401.349      -65.0 
 401.573      -66.5 
 401.796      -66.4 
 402.019      -65.6 
 402.243      -67.2 
 402.466      -68.3 
 402.689      -65.4 
 402.912      -63.6 
 403.136      -63.5 
 403.359      -67.8 
 403.582      -69.9 
 403.806      -65.9 
 404.029      -59.4 
 404.252      -61.7 
 404.476      -63.5 
 404.699      -64.4 
 404.922      -71.1 
 405.145      -72.2 
 405.369      -69.6 
 405.592      -65.6 
 405.815      -63.0 
 406.039      -60.9 
 406.262      -65.6 
 406.485      -63.0 
 406.709      -68.8 
 406.932      -67.0 
 407.155      -68.2 
 407.378      -68.1 
 407.602      -68.3 
 407.825      -69.4 
 408.048      -67.3 
 408.272      -67.9 
 408.495      -68.9 
 408.718      -66.4 
 408.941      -62.7 
 409.165      -64.6 
 409.388      -65.5 
 409.611      -69.0 
 409.835      -72.0 
 410.058      -74.4 
 410.281      -73.5 
 410.505      -72.9 
 410.728      -70.9 
 410.951      -70.3 
 411.174      -65.1 
 411.398      -64.7 
 411.621      -63.7 
 411.844      -55.2 
 412.068      -57.4 
 412.291      -61.8 
 412.514      -65.0 
 412.738      -66.8 
 412.961      -69.0 
 413.184      -66.9 
 413.407      -69.2 
 413.631      -72.4 
 413.854      -72.7 
 414.077      -76.0 
 414.301      -69.7 
 414.524      -68.0 
 414.747      -62.9 
 414.971      -64.9 
 415.194      -66.9 
 415.417      -63.6 
 415.640      -64.2 
 415.864      -59.0 
 416.087      -61.1 
 416.310      -63.8 
 416.534      -62.9 
 416.757      -59.2 
 416.980      -64.7 
 417.203      -66.3 
 417.427      -67.8 
 417.650      -68.6 
 417.873      -67.2 
 418.097      -67.4 
 418.320      -66.2 
 418.543      -66.4 
 418.767      -63.7 
 418.990      -65.9 
 419.213      -62.9 
 419.436      -64.1 
 419.660      -60.2 
 419.883      -62.3 
 420.106      -65.1 
 420.330      -67.0 
 420.553      -62.5 
 420.776      -61.8 
 421.000      -57.5 
 421.223      -61.7 
 421.446      -68.0 
 421.669      -71.5 
 421.893      -70.1 
 422.116      -70.9 
 422.339      -73.5 
 422.563      -73.1 
 422.786      -70.5 
 423.009      -64.9 
 423.233      -67.4 
 423.456      -64.7 
 423.679      -59.8 
 423.902      -65.4 
 424.126      -66.5 
 424.349      -65.9 
 424.572      -62.1 
 424.796      -65.5 
 425.019      -67.8 
 425.242      -64.6 
 425.465      -69.2 
 425.689      -74.4 
 425.912      -71.1 
 426.135      -67.7 
 426.359      -67.5 
 426.582      -68.6 
 426.805      -63.7 
 427.029      -64.3 
 427.252      -65.6 
 427.475      -68.1 
 427.698      -69.6 
 427.922      -63.8 
 428.145      -65.0 
 428.368      -64.4 
 428.592      -62.9 
 428.815      -61.2 
 429.038      -64.6 
 429.262      -65.4 
 429.485      -67.0 
 429.708      -70.5 
 429.931      -68.9 
 430.155      -69.6 
 430.378      -64.5 
 430.601      -67.6 
 430.825      -62.9 
 431.048      -63.4 
 431.271      -65.5 
 431.495      -65.9 
 431.718      -57.7 
 431.941      -60.0 
 432.164      -63.5 
 432.388      -62.3 
 432.611      -63.0 
 432.834      -67.6 
 433.058      -69.0 
 433.281      -64.1 
 433.504      -68.9 
 433.727      -67.9 
 433.951      -68.7 
 434.174      -65.4 
 434.397      -62.2 
 434.621      -64.8 
 434.844      -65.0 
 435.067      -66.4 
 435.291      -72.3 
 435.514      -72.9 
 435.737      -71.5 
 435.960      -69.9 
 436.184      -70.3 
 436.407      -73.0 
 436.630      -72.9 
 436.854      -60.8 
 437.077      -58.5 
 437.300      -59.6 
 437.524      -64.5 
 437.747      -67.5 
 437.970      -70.1 
 438.193      -67.6 
 438.417      -64.5 
 438.640      -69.5 
 438.863      -71.2 
 439.087      -70.3 
 439.310      -72.2 
 439.533      -70.0 
 439.757      -74.8 
 439.980      -68.6 
 440.203      -64.4 
 440.426      -65.1 
 440.650      -69.6 
 440.873      -65.5 
 441.096      -62.1 
 441.320      -61.6 
 441.543      -64.0 
 441.766      -61.5 
 441.989      -61.5 
 442.213      -65.5 
 442.436      -67.0 
 442.659      -67.0 
 442.883      -66.5 
 443.106      -66.8 
 443.329      -66.5 
 443.553      -62.4 
 443.776      -61.2 
 443.999      -63.6 
 444.222      -63.6 
 444.446      -65.4 
 444.669      -69.6 
 444.892      -69.1 
 445.116      -71.4 
 445.339      -71.9 
 445.562      -69.9 
 445.786      -64.9 
 446.009      -70.8 
 446.232      -63.6 
 446.455      -67.6 
 446.679      -70.0 
 446.902      -66.6 
 447.125      -62.4 
 447.349      -59.7 
 447.572      -58.6 
 447.795      -60.0 
 448.019      -64.0 
 448.242      -67.0 
 448.465      -70.2 
 448.688      -68.5 
 448.912      -62.3 
 449.135      -62.3 
 449.358      -68.2 
 449.582      -68.2 
 449.805      -60.2 
 450.028      -65.1 
 450.251      -72.0 
 450.475      -65.3 
 450.698      -64.9 
 450.921      -69.3 
 451.145      -67.5 
 451.368      -68.4 
 451.591      -66.7 
 451.815      -58.8 
 452.038      -56.9 
 452.261      -57.2 
 452.484      -57.4 
 452.708      -59.7 
 452.931      -65.0 
 453.154      -65.7 
 453.378      -60.9 
 453.601      -54.1 
 453.824      -54.6 
 454.048      -57.3 
 454.271      -59.3 
 454.494      -58.6 
 454.717      -60.5 
 454.941      -57.4 
 455.164      -62.0 
 455.387      -63.1 
 455.611      -61.4 
 455.834      -65.5 
 456.057      -66.6 
 456.281      -67.2 
 456.504      -66.4 
 456.727      -66.1 
 456.950      -60.8 
 457.174      -63.4 
 457.397      -67.2 
 457.620      -65.6 
 457.844      -72.5 
 458.067      -68.1 
 458.290      -64.6 
 458.513      -68.2 
 458.737      -69.4 
 458.960      -65.3 
 459.183      -64.8 
 459.407      -62.3 
 459.630      -64.4 
 459.853      -67.3 
 460.077      -67.8 
 460.300      -67.6 
 460.523      -67.3 
 460.746      -61.1 
 460.970      -59.7 
 461.193      -63.9 
 461.416      -63.7 
 461.640      -66.1 
 461.863      -64.8 
 462.086      -63.4 
 462.310      -64.3 
 462.533      -58.7 
 462.756      -58.4 
 462.979      -59.4 
 463.203      -60.1 
 463.426      -62.9 
 463.649      -59.0 
 463.873      -60.2 
 464.096      -60.4 
 464.319      -61.9 
 464.543      -59.3 
 464.766      -58.3 
 464.989      -55.8 
 465.212      -51.8 
 465.436      -47.3 
 465.659      -46.6 
 465.882      -45.3 
 466.106      -45.9 
 466.329      -46.9 
 466.552      -50.6 
 466.775      -43.2 
 466.999      -38.7 
 467.222      -38.5 
 467.445      -34.8 
 467.669      -38.4 
 467.892      -36.4 
 468.115      -24.7 
 468.339      -29.3 
 468.562      -34.2 
 468.785      -28.1 
 469.008      -25.4 
 469.232      -30.1 
 469.455      -31.0 
 469.678      -35.3 
 469.902      -36.3 
 470.125      -32.2 
 470.348      -30.0 
 470.572      -31.6 
 470.795      -31.8 
 471.018      -33.4 
 471.241      -42.4 
 471.465      -44.1 
 471.688      -38.5 
 471.911      -39.6 
 472.135      -44.1 
 472.358      -44.9 
 472.581      -51.8 
 472.805      -56.0 
 473.028      -59.6 
 473.251      -56.9 
 473.474      -61.6 
 473.698      -57.1 
 473.921      -63.5 
 474.144      -63.0 
 474.368      -67.9 
 474.591      -75.9 
 474.814      -77.7 
 475.038      -77.8 
 475.261      -78.0 
 475.484      -85.3 
 475.707      -89.3 
 475.931      -90.9 
 476.154      -95.2 
 476.377      -95.4 
 476.601      -92.2 
 476.824      -97.3 
 477.047     -100.9 
 477.270     -103.9 
 477.494     -110.6 
 477.717     -111.8 
 477.940     -115.4 
 478.164     -112.2 
 478.387     -104.8 
 478.610     -107.4 
 478.834     -113.0 
 479.057     -107.4 
 479.280     -105.9 
 479.503      -97.4 
 479.727      -97.5 
 479.950      -91.6 
 480.173      -94.4 
 480.397      -94.5 
 480.620      -92.7 
 480.843      -91.1 
 481.067      -88.8 
 481.290      -82.6 
 481.513      -79.9 
 481.736      -74.3 
 481.960      -68.5 
 482.183      -68.2 
 482.406      -66.3 
 482.630      -62.6 
 482.853      -58.2 
 483.076      -52.0 
 483.300      -51.6 
 483.523      -48.3 
 483.746      -47.7 
 483.969      -46.9 
 484.193      -43.0 
 484.416      -34.3 
 484.639      -26.8 
 484.863      -22.6 
 485.086      -21.6 
 485.309      -20.1 
 485.532      -17.7 
 485.756       -8.6 
 485.979       -3.0 
 486.202        4.3 
 486.426        6.2 
 486.649        4.9 
 486.872        9.2 
 487.096       17.7 
 487.319       18.0 
 487.542       15.7 
 487.765       12.0 
 487.989       12.1 
 488.212        7.2 
 488.435        6.4 
 488.659        7.0 
 488.882        0.8 
 489.105       -5.8 
 489.329      -13.0 
 489.552      -27.2 
 489.775      -44.0 
 489.998      -55.7 
 490.222      -79.9 
 490.445      -89.4 
 490.668      -98.8 
 490.892     -105.4 
 491.115     -109.0 
 491.338     -115.6 
 491.562     -128.2 
 491.785     -133.3 
 492.008     -137.6 
 492.231     -146.5 
 492.455     -145.7 
 492.678     -144.5 
 492.901     -145.2 
 493.125     -139.8 
 493.348     -136.4 
 493.571     -130.9 
 493.794     -123.1 
 494.018     -115.3 
 494.241     -113.8 
 494.464     -108.5 
 494.688     -107.2 
 494.911     -100.3 
 495.134      -95.4 
 495.358      -91.8 
 495.581      -84.6 
 495.804      -79.7 
 496.027      -85.8 
 496.251      -92.6 
 496.474      -91.7 
 496.697      -93.5 
 496.921      -95.1 
 497.144      -94.4 
 497.367      -97.3 
 497.591     -104.0 
 497.814     -110.3 
 498.037     -109.4 
 498.260     -112.3 
 498.484     -111.7 
 498.707     -116.0 
 498.930     -121.8 
 499.154     -125.7 
 499.377     -129.3 
 499.600     -136.1 
 499.824     -140.5 
 500.047     -138.3 
 500.270     -134.1 
 500.493     -128.0 
 500.717     -124.3 
 500.940     -121.6 
 501.163     -117.3 
 501.387     -104.4 
 501.610      -95.6 
 501.833      -85.5 
 502.056      -71.4 
 502.280      -61.9 
 502.503      -49.9 
 502.726      -35.7 
 502.950      -15.3 
 503.173       -1.3 
 503.396        7.0 
 503.620       20.1 
 503.843       32.2 
 504.066       50.9 
 504.289       68.2 
 504.513       84.3 
 504.736      100.6 
 504.959      118.1 
 505.183      136.7 
 505.406      155.0 
 505.629      172.0 
 505.853      186.3 
 506.076      204.0 
 506.299      229.9 
 506.522      254.9 
 506.746      274.9 
 506.969      292.1 
 507.192      309.0 
 507.416      323.3 
 507.639      337.3 
 507.862      353.2 
 508.086      370.6 
 508.309      385.7 
 508.532      390.9 
 508.755      388.3 
 508.979      381.0 
 509.202      368.6 
 509.425      351.8 
 509.649      321.0 
 509.872      286.7 
 510.095      247.5 
 510.318      190.3 
 510.542      124.2 
 510.765       44.7 
 510.988      -43.1 
 511.212     -128.7 
 511.435     -220.8 
 511.658     -316.2 
 511.882     -408.1 
 512.105     -491.2 
 512.328     -559.0 
 512.551     -620.0 
 512.775     -671.2 
 512.998     -722.5 
 513.221     -762.3 
 513.445     -781.9 
 513.668     -783.5 
 513.891     -779.0 
 514.115     -759.0 
 514.338     -732.5 
 514.561     -694.5 
 514.784     -661.4 
 515.008     -621.5 
 515.231     -576.6 
 515.454     -533.3 
 515.678     -497.0 
 515.901     -454.7 
 516.124     -414.0 
 516.348     -372.5 
 516.571     -344.9 
 516.794     -312.8 
 517.017     -284.6 
 517.241     -263.0 
 517.464     -243.2 
 517.687     -234.3 
 517.911     -222.1 
 518.134     -206.8 
 518.357     -203.8 
 518.580     -192.2 
 518.804     -183.5 
 519.027     -182.7 
 519.250     -178.9 
 519.474     -177.9 
 519.697     -175.5 
 519.920     -177.1 
 520.144     -167.7 
 520.367     -160.8 
 520.590     -155.0 
 520.813     -144.9 
 521.037     -146.5 
 521.260     -142.3 
 521.483     -135.9 
 521.707     -131.7 
 521.930     -119.9 
 522.153     -119.0 
 522.377     -108.5 
 522.600     -106.1 
 522.823     -100.5 
 523.046     -100.4 
 523.270      -97.5 
 523.493      -95.2 
 523.716      -92.4 
 523.940      -84.2 
 524.163      -89.5 
 524.386      -96.7 
 524.610      -90.8 
 524.833      -88.6 
 525.056      -81.9 
 525.279      -78.1 
 525.503      -80.7 
 525.726      -78.0 
 525.949      -78.7 
 526.173      -79.2 
 526.396      -78.2 
 526.619      -75.9 
 526.842      -75.3 
 527.066      -78.9 
 527.289      -81.3 
 527.512      -80.4 
 527.736      -83.2 
 527.959      -83.7 
 528.182      -79.8 
 528.406      -77.0 
 528.629      -74.7 
 528.852      -76.4 
 529.075      -75.1 
 529.299      -73.5 
 529.522      -72.9 
 529.745      -75.9 
 529.969      -78.6 
 530.192      -79.3 
 530.415      -75.5 
 530.639      -74.4 
 530.862      -76.0 
 531.085      -72.5 
 531.308      -74.1 
 531.532      -74.0 
 531.755      -75.2 
 531.978      -74.1 
 532.202      -72.1 
 532.425      -74.1 
 532.648      -75.7 
 532.872      -76.8 
 533.095      -75.7 
 533.318      -73.6 
 533.541      -76.1 
 533.765      -74.9 
 533.988      -76.9 
 534.211      -79.1 
 534.435      -77.9 
 534.658      -79.6 
 534.881      -77.0 
 535.104      -75.2 
 535.328      -73.8 
 535.551      -74.7 
 535.774      -75.5 
 535.998      -75.7 
 536.221      -77.5 
 536.444      -75.4 
 536.668      -71.8 
 536.891      -74.4 
 537.114      -73.6 
 537.337      -72.5 
 537.561      -69.8 
 537.784      -64.3 
 538.007      -60.0 
 538.231      -67.4 
 538.454      -71.6 
 538.677      -75.9 
 538.901      -73.9 
 539.124      -69.5 
 539.347      -75.9 
 539.570      -75.2 
 539.794      -79.0 
 540.017      -78.1 
 540.240      -75.9 
 540.464      -71.6 
 540.687      -66.6 
 540.910      -71.3 
 541.134      -71.1 
 541.357      -70.0 
 541.580      -66.3 
 541.803      -70.8 
 542.027      -72.4 
 542.250      -72.4 
 542.473      -65.5 
 542.697      -65.4 
 542.920      -66.0 
 543.143      -69.5 
 543.366      -67.9 
 543.590      -69.5 
 543.813      -69.4 
 544.036      -69.6 
 544.260      -70.0 
 544.483      -72.6 
 544.706      -67.4 
 544.930      -71.2 
 545.153      -74.0 
 545.376      -75.7 
 545.599      -69.3 
 545.823      -68.4 
 546.046      -65.7 
 546.269      -62.5 
 546.493      -68.1 
 546.716      -70.4 
 546.939      -67.4 
 547.163      -72.3 
 547.386      -69.4 
 547.609      -64.9 
 547.832      -66.6 
 548.056      -70.5 
 548.279      -74.7 
 548.502      -74.2 
 548.726      -65.1 
 548.949      -65.5 
 549.172      -71.3 
 549.396      -71.5 
 549.619      -71.7 
 549.842      -73.0 
 550.065      -73.7 
 550.289      -70.8 
 550.512      -65.6 
 550.735      -68.1 
 550.959      -67.8 
 551.182      -69.2 
 551.405      -69.3 
 551.628      -76.8 
 551.852      -77.5 
 552.075      -76.3 
 552.298      -73.1 
 552.522      -73.0 
 552.745      -71.5 
 552.968      -70.0 
 553.192      -73.8 
 553.415      -77.4 
 553.638      -72.8 
 553.861      -72.4 
 554.085      -76.5 
 554.308      -78.0 
 554.531      -71.3 
 554.755      -67.0 
 554.978      -65.7 
 555.201      -66.1 
 555.425      -64.7 
 555.648      -68.7 
 555.871      -67.8 
 556.094      -66.5 
 556.318      -70.6 
 556.541      -71.1 
 556.764      -63.1 
 556.988      -64.2 
 557.211      -69.4 
 557.434      -69.7 
 557.658      -72.3 
 557.881      -68.1 
 558.104      -71.6 
 558.327      -75.0 
 558.551      -74.4 
 558.774      -69.5 
 558.997      -69.6 
 559.221      -71.4 
 559.444      -67.7 
 559.667      -69.1 
 559.890      -75.1 
 560.114      -67.5 
 560.337      -73.4 
 560.560      -70.6 
 560.784      -65.7 
 561.007      -69.0 
 561.230      -72.6 
 561.454      -72.9 
 561.677      -72.4 
 561.900      -71.2 
 562.123      -69.9 
 562.347      -69.1 
 562.570      -68.9 
 562.793      -66.5 
 563.017      -68.4 
 563.240      -69.3 
 563.463      -66.6 
 563.687      -68.2 
 563.910      -63.9 
 564.133      -64.0 
 564.356      -63.5 
 564.580      -67.2 
 564.803      -67.9 
 565.026      -71.2 
 565.250      -67.2 
 565.473      -65.8 
 565.696      -68.9 
 565.920      -66.7 
 566.143      -68.3 
 566.366      -65.9 
 566.589      -66.0 
 566.813      -69.5 
 567.036      -73.9 
 567.259      -65.1 
 567.483      -71.1 
 567.706      -74.1 
 567.929      -74.9 
 568.152      -67.9 
 568.376      -69.0 
 568.599      -70.2 
 568.822      -67.3 
 569.046      -68.2 
 569.269      -69.2 
 569.492      -67.0 
 569.716      -68.1 
 569.939      -75.9 
 570.162      -77.4 
 570.385      -74.3 
 570.609      -74.5 
 570.832      -72.4 
 571.055      -68.0 
 571.279      -65.8 
 571.502      -64.8 
 571.725      -71.5 
 571.949      -77.2 
 572.172      -75.8 
 572.395      -72.0 
 572.618      -69.3 
 572.842      -69.7 
 573.065      -70.8 
 573.288      -73.2 
 573.512      -67.5 
 573.735      -68.8 
 573.958      -70.1 
 574.182      -66.7 
 574.405      -67.3 
 574.628      -70.7 
 574.851      -73.3 
 575.075      -71.0 
 575.298      -70.7 
 575.521      -67.5 
 575.745      -65.5 
 575.968      -69.1 
 576.191      -70.2 
 576.415      -70.5 
 576.638      -71.2 
 576.861      -71.3 
 577.084      -67.4 
 577.308      -71.5 
 577.531      -74.1 
 577.754      -74.7 
 577.978      -73.8 
 578.201      -76.1 
 578.424      -75.2 
 578.647      -74.2 
 578.871      -70.8 
 579.094      -69.0 
 579.317      -67.4 
 579.541      -67.9 
 579.764      -66.7 
 579.987      -66.6 
 580.211      -68.1 
 580.434      -69.0 
 580.657      -69.7 
 580.880      -68.6 
 581.104      -66.9 
 581.327      -74.1 
 581.550      -73.3 
 581.774      -74.8 
 581.997      -74.5 
 582.220      -72.4 
 582.444      -72.3 
 582.667      -70.7 
 582.890      -65.3 
 583.113      -67.8 
 583.337      -71.3 
 583.560      -71.6 
 583.783      -68.2 
 584.007      -66.3 
 584.230      -67.2 
 584.453      -70.1 
 584.677      -68.6 
 584.900      -73.4 
 585.123      -72.8 
 585.346      -69.9 
 585.570      -74.4 
 585.793      -78.1 
 586.016      -77.0 
 586.240      -69.9 
 586.463      -69.5 
 586.686      -74.7 
 586.909      -71.2 
 587.133      -67.4 
 587.356      -72.5 
 587.579      -73.2 
 587.803      -73.0 
 588.026      -70.8 
 588.249      -65.6 
 588.473      -60.9 
 588.696      -63.5 
 588.919      -68.3 
 589.142      -70.9 
 589.366      -69.9 
 589.589      -69.4 
 589.812      -64.5 
 590.036      -63.4 
 590.259      -68.8 
 590.482      -73.1 
 590.706      -70.3 
 590.929      -66.5 
 591.152      -64.7 
 591.375      -63.5 
 591.599      -64.4 
 591.822      -71.6 
 592.045      -74.5 
 592.269      -75.2 
 592.492      -70.2 
 592.715      -65.2 
 592.939      -65.9 
 593.162      -68.7 
 593.385      -69.4 
 593.608      -69.8 
 593.832      -65.1 
 594.055      -69.1 
 594.278      -70.0 
 594.502      -68.3 
 594.725      -65.9 
 594.948      -67.5 
 595.171      -69.6 
 595.395      -72.0 
 595.618      -70.4 
 595.841      -61.2 
 596.065      -60.8 
 596.288      -70.0 
 596.511      -71.2 
 596.735      -65.1 
 596.958      -66.6 
 597.181      -70.7 
 597.404      -73.1 
 597.628      -68.6 
 597.851      -69.3 
 598.074      -69.4 
 598.298      -66.1 
 598.521      -65.2 
 598.744      -68.7 
 598.968      -67.9 
 599.191      -62.5 
 599.414      -63.0 
 599.637      -63.7 
 599.861      -67.7 
 600.084      -69.5 
 600.307      -67.7 
 600.531      -70.1 
 600.754      -67.9 
 600.977      -66.4 
 601.201      -69.7 
 601.424      -70.5 
 601.647      -73.7 
 601.870      -70.0 
 602.094      -68.2 
 602.317      -68.8 
 602.540      -74.5 
 602.764      -71.3 
 602.987      -73.4 
 603.210      -65.2 
 603.433      -64.9 
 603.657      -69.4 
 603.880      -67.9 
 604.103      -71.5 
 604.327      -70.1 
 604.550      -67.3 
 604.773      -61.0 
 604.997      -62.8 
 605.220      -59.5 
 605.443      -59.4 
 605.666      -58.1 
 605.890      -60.5 
 606.113      -63.9 
 606.336      -66.1 
 606.560      -65.7 
 606.783      -66.2 
 607.006      -62.9 
 607.230      -58.7 
 607.453      -58.5 
 607.676      -63.0 
 607.899      -60.2 
 608.123      -52.6 
 608.346      -58.9 
 608.569      -59.0 
 608.793      -63.3 
 609.016      -63.4 
 609.239      -63.1 
 609.463      -55.9 
 609.686      -61.5 
 609.909      -67.3 
 610.132      -69.7 
 610.356      -73.5 
 610.579      -79.2 
 610.802      -79.3 
 611.026      -74.6 
 611.249      -76.6 
 611.472      -76.2 
 611.695      -75.3 
 611.919      -77.1 
 612.142      -75.6 
 612.365      -79.3 
 612.589      -81.6 
 612.812      -77.7 
 613.035      -80.0 
 613.259      -84.0 
 613.482      -77.3 
 613.705      -76.2 
 613.928      -77.7 
 614.152      -84.8 
 614.375      -76.4 
 614.598      -83.1 
 614.822      -82.6 
 615.045      -80.4 
 615.268      -80.8 
 615.492      -79.2 
 615.715      -72.2 
 615.938      -63.7 
 616.161      -64.1 
 616.385      -64.8 
 616.608      -69.5 
 616.831      -76.0 
 617.055      -71.7 
 617.278      -68.4 
 617.501      -69.2 
 617.725      -71.1 
 617.948      -70.9 
 618.171      -64.9 
 618.394      -66.2 
 618.618      -65.6 
 618.841      -68.5 
 619.064      -65.1 
 619.288      -61.6 
 619.511      -60.6 
 619.734      -65.0 
 619.957      -67.0 
 620.181      -65.0 
 620.404      -62.7 
 620.627      -63.6 
 620.851      -65.5 
 621.074      -67.3 
 621.297      -60.2 
 621.521      -57.8 
 621.744      -62.1 
 621.967      -63.4 
 622.190      -64.3 
 622.414      -67.6 
 622.637      -68.7 
 622.860      -66.9 
 623.084      -61.3 
 623.307      -66.0 
 623.530      -63.9 
 623.754      -62.6 
 623.977      -62.8 
 624.200      -61.2 
 624.423      -57.3 
 624.647      -61.0 
 624.870      -61.5 
 625.093      -56.0 
 625.317      -50.2 
 625.540      -44.0 
 625.763      -50.3 
 625.987      -54.5 
 626.210      -54.4 
 626.433      -48.1 
 626.656      -47.5 
 626.880      -47.6 
 627.103      -48.1 
 627.326      -51.5 
 627.550      -48.0 
 627.773      -47.0 
 627.996      -54.2 
 628.219      -55.3 
 628.443      -63.4 
 628.666      -67.7 
 628.889      -60.7 
 629.113      -66.6 
 629.336      -69.8 
 629.559      -71.8 
 629.783      -76.2 
 630.006      -84.6 
 630.229      -85.5 
 630.452      -90.3 
 630.676      -92.8 
 630.899      -93.6 
 631.122      -95.2 
 631.346      -94.4 
 631.569      -98.9 
 631.792     -101.2 
 632.016     -107.4 
 632.239     -104.3 
 632.462     -105.3 
 632.685     -102.4 
 632.909      -99.5 
 633.132      -89.8 
 633.355      -89.4 
 633.579      -85.5 
 633.802      -84.8 
 634.025      -87.1 
 634.249      -84.2 
 634.472      -84.4 
 634.695      -83.8 
 634.918      -76.6 
 635.142      -72.6 
 635.365      -62.3 
 635.588      -59.8 
 635.812      -62.0 
 636.035      -58.2 
 636.258      -60.9 
 636.481      -58.4 
 636.705      -55.2 
 636.928      -57.7 
 637.151      -59.5 
 637.375      -62.7 
 637.598      -65.7 
 637.821      -75.3 
 638.045      -71.7 
 638.268      -74.5 
 638.491      -70.2 
 638.714      -72.2 
 638.938      -74.7 
 639.161      -79.2 
 639.384      -77.4 
 639.608      -77.4 
 639.831      -80.4 
 640.054      -81.4 
 640.278      -82.5 
 640.501      -78.0 
 640.724      -77.4 
 640.947      -80.8 
 641.171      -80.2 
 641.394      -76.7 
 641.617      -71.2 
 641.841      -66.2 
 642.064      -61.2 
 642.287      -58.6 
 642.511      -63.3 
 642.734      -66.5 
 642.957      -72.1 
 643.180      -67.6 
 643.404      -61.0 
 643.627      -61.4 
 643.850      -54.4 
 644.074      -54.2 
 644.297      -58.4 
 644.520      -63.0 
 644.743      -62.7 
 644.967      -54.8 
 645.190      -55.8 
 645.413      -58.9 
 645.637      -55.0 
 645.860      -55.1 
 646.083      -56.1 
 646.307      -56.2 
 646.530      -54.9 
 646.753      -50.5 
 646.976      -51.4 
 647.200      -47.2 
 647.423      -45.3 
 647.646      -48.0 
 647.870      -44.1 
 648.093      -43.7 
 648.316      -39.0 
 648.540      -31.9 
 648.763      -26.4 
 648.986      -20.3 
 649.209      -17.4 
 649.433      -12.7 
 649.656       -7.8 
 649.879        6.9 
 650.103       11.0 
 650.326       20.7 
 650.549       30.7 
 650.773       29.1 
 650.996       33.0 
 651.219       43.3 
 651.442       49.1 
 651.666       54.0 
 651.889       56.7 
 652.112       62.2 
 652.336       60.3 
 652.559       63.9 
 652.782       60.6 
 653.005       60.0 
 653.229       57.4 
 653.452       45.3 
 653.675       35.0 
 653.899       15.2 
 654.122        2.7 
 654.345       -8.3 
 654.569      -28.9 
 654.792      -53.6 
 655.015      -76.0 
 655.238     -100.2 
 655.462     -131.4 
 655.685     -161.8 
 655.908     -189.4 
 656.132     -209.2 
 656.355     -230.2 
 656.578     -245.2 
 656.802     -255.7 
 657.025     -266.4 
 657.248     -276.2 
 657.471     -285.3 
 657.695     -285.8 
 657.918     -278.4 
 658.141     -277.4 
 658.365     -267.1 
 658.588     -252.1 
 658.811     -233.4 
 659.035     -231.3 
 659.258     -223.1 
 659.481     -206.3 
 659.704     -191.3 
 659.928     -175.7 
 660.151     -166.4 
 660.374     -153.3 
 660.598     -140.4 
 660.821     -128.5 
 661.044     -123.1 
 661.267     -120.5 
 661.491     -109.3 
 661.714     -100.6 
 661.937      -94.6 
 662.161      -93.3 
 662.384      -90.2 
 662.607      -84.7 
 662.831      -79.7 
 663.054      -77.1 
 663.277      -71.2 
 663.500      -73.7 
 663.724      -80.7 
 663.947      -81.6 
 664.170      -84.1 
 664.394      -78.0 
 664.617      -78.6 
 664.840      -76.2 
 665.064      -72.4 
 665.287      -70.9 
 665.510      -69.5 
 665.733      -67.0 
 665.957      -63.1 
 666.180      -64.7 
 666.403      -67.4 
 666.627      -69.0 
 666.850      -68.2 
 667.073      -69.5 
 667.297      -68.0 
 667.520      -65.7 
 667.743      -64.8 
 667.966      -66.8 
 668.190      -72.9 
 668.413      -67.1 
 668.636      -63.0 
 668.860      -65.6 
 669.083      -64.7 
 669.306      -68.2 
 669.529      -71.3 
 669.753      -64.8 
 669.976      -58.9 
 670.199      -68.2 
 670.423      -76.5 
 670.646      -76.6 
 670.869      -71.8 
 671.093      -73.2 
 671.316      -72.2 
 671.539      -68.0 
 671.762      -69.1 
 671.986      -64.9 
 672.209      -70.0 
 672.432      -73.3 
 672.656      -73.2 
 672.879      -72.4 
 673.102      -65.9 
 673.326      -61.7 
 673.549      -65.8 
 673.772      -74.1 
 673.995      -76.6 
 674.219      -71.8 
 674.442      -72.5 
 674.665      -69.1 
 674.889      -68.7 
 675.112      -70.9 
 675.335      -68.1 
 675.559      -64.8 
 675.782      -69.1 
 676.005      -71.1 
 676.228      -63.4 
 676.452      -60.4 
 676.675      -62.7 
 676.898      -68.5 
 677.122      -69.6 
 677.345      -67.7 
 677.568      -68.1 
 677.792      -63.8 
 678.015      -62.3 
 678.238      -62.4 
 678.461      -67.1 
 678.685      -65.5 
 678.908      -65.1 
 679.131      -63.9 
 679.355      -63.2 
 679.578      -65.7 
 679.801      -63.8 
 680.024      -70.4 
 680.248      -66.2 
 680.471      -62.0 
 680.694      -63.2 
 680.918      -67.9 
 681.141      -71.3 
 681.364      -69.4 
 681.588      -66.1 
 681.811      -63.5 
 682.034      -62.7 
 682.257      -64.2 
 682.481      -63.8 
 682.704      -61.9 
 682.927      -68.5 
 683.151      -73.1 
 683.374      -65.5 
 683.597      -62.1 
 683.821      -66.7 
 684.044      -68.7 
 684.267      -67.2 
 684.490      -68.1 
 684.714      -68.1 
 684.937      -69.3 
 685.160      -67.7 
 685.384      -66.2 
 685.607      -65.2 
 685.830      -68.6 
 686.054      -69.9 
 686.277      -63.4 
 686.500      -59.5 
 686.723      -58.3 
 686.947      -63.3 
 687.170      -69.9 
 687.393      -75.7 
 687.617      -71.3 
 687.840      -56.8 
 688.063      -65.4 
 688.286      -63.3 
 688.510      -69.1 
 688.733      -67.1 
 688.956      -63.3 
 689.180      -63.3 
 689.403      -66.2 
 689.626      -66.7 
 689.850      -62.0 
 690.073      -58.6 
 690.296      -62.1 
 690.519      -69.8 
 690.743      -72.4 
 690.966      -71.8 
 691.189      -64.5 
 691.413      -60.7 
 691.636      -61.5 
 691.859      -59.8 
 692.083      -64.4 
 692.306      -62.7 
 692.529      -68.2 
 692.752      -65.6 
 692.976      -66.6 
 693.199      -69.6 
 693.422      -66.2 
 693.646      -61.0 
 693.869      -62.3 
 694.092      -68.3 
 694.316      -65.1 
 694.539      -75.9 
 694.762      -75.1 
 694.985      -73.6 
 695.209      -68.5 
 695.432      -66.2 
 695.655      -62.4 
 695.879      -60.4 
 696.102      -63.4 
 696.325      -67.1 
 696.548      -70.0 
 696.772      -69.8 
 696.995      -63.9 
 697.218      -66.9 
 697.442      -66.8 
 697.665      -65.8 
 697.888      -65.7 
 698.112      -66.6 
 698.335      -65.3 
 698.558      -69.4 
 698.781      -69.1 
 699.005      -69.0 
 699.228      -60.8 
 699.451      -67.1 
 699.675      -65.9 
 699.898      -63.7 
 700.121      -72.4 
 700.345      -70.3 
 700.568      -62.3 
 700.791      -68.2 
 701.014      -71.9 
 701.238      -70.3 
 701.461      -67.4 
 701.684      -69.7 
 701.908      -73.7 
 702.131      -80.4 
 702.354      -76.8 
 702.578      -68.2 
 702.801      -64.2 
 703.024      -66.2 
 703.247      -62.6 
 703.471      -60.6 
 703.694      -63.1 
 703.917      -63.6 
 704.141      -62.8 
 704.364      -66.9 
 704.587      -65.0 
 704.810      -64.8 
 705.034      -70.2 
 705.257      -70.9 
 705.480      -70.3 
 705.704      -63.8 
 705.927      -66.1 
 706.150      -64.4 
 706.374      -62.7 
 706.597      -66.6 
 706.820      -66.3 
 707.043      -63.8 
 707.267      -62.2 
 707.490      -66.5 
 707.713      -67.9 
 707.937      -64.0 
 708.160      -63.9 
 708.383      -62.8 
 708.607      -59.6 
 708.830      -61.5 
 709.053      -63.9 
 709.276      -64.8 
 709.500      -60.2 
 709.723      -64.2 
 709.946      -66.1 
 710.170      -67.7 
 710.393      -60.8 
 710.616      -59.0 
 710.840      -63.8 
 711.063      -66.4 
 711.286      -64.7 
 711.509      -64.5 
 711.733      -61.8 
 711.956      -60.1 
 712.179      -61.9 
 712.403      -64.4 
 712.626      -64.7 
 712.849      -64.9 
 713.072      -67.3 
 713.296      -65.6 
 713.519      -64.6 
 713.742      -70.3 
 713.966      -67.9 
 714.189      -63.2 
 714.412      -65.0 
 714.636      -69.3 
 714.859      -70.7 
 715.082      -61.0 
 715.305      -59.0 
 715.529      -62.3 
 715.752      -58.0 
 715.975      -61.3 
 716.199      -66.1 
 716.422      -64.2 
 716.645      -64.3 
 716.869      -58.3 
 717.092      -61.7 
 717.315      -63.2 
 717.538      -62.4 
 717.762      -69.2 
 717.985      -71.1 
 718.208      -69.3 
 718.432      -69.9 
 718.655      -68.5 
 718.878      -65.6 
 719.102      -64.3 
 719.325      -60.1 
 719.548      -62.8 
 719.771      -68.5 
 719.995      -64.4 
 720.218      -63.7 
 720.441      -64.3 
 720.665      -64.5 
 720.888      -59.4 
 721.111      -57.2 
 721.334      -60.4 
 721.558      -58.6 
 721.781      -62.1 
 722.004      -65.3 
 722.228      -62.5 
 722.451      -63.7 
 722.674      -65.3 
 722.898      -67.5 
 723.121      -65.2 
 723.344      -67.6 
 723.567      -64.0 
 723.791      -62.6 
 724.014      -67.0 
 724.237      -64.2 
 724.461      -59.4 
 724.684      -60.1 
 724.907      -64.4 
 725.131      -67.0 
 725.354      -66.8 
 725.577      -65.2 
 725.800      -66.7 
 726.024      -63.2 
 726.247      -61.0 
 726.470      -65.2 
 726.694      -65.8 
 726.917      -64.9 
 727.140      -61.7 
 727.364      -67.0 
 727.587      -65.7 
 727.810      -63.9 
 728.033      -70.9 
 728.257      -69.3 
 728.480      -64.0 
 728.703      -65.5 
 728.927      -70.2 
 729.150      -68.2 
 729.373      -67.1 
 729.596      -64.5 
 729.820      -65.8 
 730.043      -70.7 
 730.266      -70.2 
 730.490      -69.2 
 730.713      -72.6 
 730.936      -65.1 
 731.160      -64.8 
 731.383      -67.4 
 731.606      -69.7 
 731.829      -71.7 
 732.053      -71.3 
 732.276      -69.2 
 732.499      -63.5 
 732.723      -60.1 
 732.946      -57.9 
 733.169      -62.7 
 733.393      -66.6 
 733.616      -70.4 
 733.839      -67.4 
 734.062      -60.5 
 734.286      -63.1 
 734.509      -67.1 
 734.732      -69.0 
 734.956      -63.4 
 735.179      -62.8 
 735.402      -62.7 
 735.626      -64.1 
 735.849      -59.1 
 736.072      -59.6 
 736.295      -64.1 
 736.519      -67.7 
 736.742      -66.7 
 736.965      -67.9 
 737.189      -63.6 
 737.412      -64.1 
 737.635      -65.8 
 737.858      -65.4 
 738.082      -62.2 
 738.305      -61.6 
 738.528      -62.4 
 738.752      -63.6 
 738.975      -64.9 
 739.198      -66.7 
 739.422      -66.7 
 739.645      -63.9 
 739.868      -66.5 
 740.091      -63.4 
 740.315      -58.1 
 740.538      -66.5 
 740.761      -64.8 
 740.985      -59.8 
 741.208      -59.3 
 741.431      -63.9 
 741.655      -64.1 
 741.878      -65.4 
 742.101      -69.1 
 742.324      -65.0 
 742.548      -65.0 
 742.771      -67.0 
 742.994      -62.1 
 743.218      -62.2 
 743.441      -63.3 
 743.664      -61.4 
 743.888      -58.7 
 744.111      -58.1 
 744.334      -63.5 
 744.557      -61.3 
 744.781      -62.7 
 745.004      -66.2 
 745.227      -64.2 
 745.451      -59.7 
 745.674      -59.1 
 745.897      -60.0 
 746.120      -67.5 
 746.344      -65.1 
 746.567      -60.5 
 746.790      -59.1 
 747.014      -57.1 
 747.237      -66.0 
 747.460      -68.5 
 747.684      -67.8 
 747.907      -64.5 
 748.130      -68.4 
 748.353      -68.0 
 748.577      -64.2 
 748.800      -66.3 
 749.023      -67.0 
 749.247      -68.4 
 749.470      -69.3 
 749.693      -65.4 
 749.917      -61.6 
 750.140      -60.3 
 750.363      -62.5 
 750.586      -62.4 
 750.810      -60.1 
 751.033      -61.6 
 751.256      -64.1 
 751.480      -65.6 
 751.703      -67.1 
 751.926      -62.0 
 752.150      -60.9 
 752.373      -59.5 
 752.596      -57.1 
 752.819      -61.6 
 753.043      -66.1 
 753.266      -63.4 
 753.489      -70.1 
 753.713      -71.5 
 753.936      -71.4 
 754.159      -67.5 
 754.382      -65.8 
 754.606      -62.9 
 754.829      -61.0 
 755.052      -61.1 
 755.276      -62.2 
 755.499      -67.7 
 755.722      -72.1 
 755.946      -70.2 
 756.169      -66.9 
 756.392      -68.2 
 756.615      -70.0 
 756.839      -65.4 
 757.062      -64.1 
 757.285      -66.5 
 757.509      -66.0 
 757.732      -64.1 
 757.955      -61.1 
 758.179      -64.0 
 758.402      -58.7 
 758.625      -62.6 
 758.848      -59.4 
 759.072      -66.5 
 759.295      -68.4 
 759.518      -61.5 
 759.742      -58.2 
 759.965      -60.2 
 760.188      -68.6 
 760.412      -66.0 
 760.635      -63.3 
 760.858      -64.6 
 761.081      -63.5 
 761.305      -68.7 
 761.528      -65.5 
 761.751      -59.6 
 761.975      -63.1 
 762.198      -65.2 
 762.421      -68.2 
 762.644      -63.6 
 762.868      -60.0 
 763.091      -65.9 
 763.314      -64.9 
 763.538      -64.5 
 763.761      -58.5 
 763.984      -61.3 
 764.208      -59.7 
 764.431      -60.5 
 764.654      -61.8 
 764.877      -64.7 
 765.101      -63.5 
 765.324      -64.0 
 765.547      -56.8 
 765.771      -54.5 
 765.994      -57.9 
 766.217      -58.6 
 766.441      -66.6 
 766.664      -62.3 
 766.887      -63.4 
 767.110      -67.7 
 767.334      -69.3 
 767.557      -62.7 
 767.780      -62.7 
 768.004      -64.1 
 768.227      -58.7 
 768.450      -66.4 
 768.674      -67.5 
 768.897      -73.7 
 769.120      -68.5 
 769.343      -69.1 
 769.567      -68.8 
 769.790      -67.8 
 770.013      -65.6 
 770.237      -62.2 
 770.460      -59.0 
 770.683      -58.3 
 770.906      -62.0 
 771.130      -65.1 
 771.353      -64.1 
 771.576      -57.2 
 771.800      -57.0 
 772.023      -62.8 
 772.246      -62.7 
 772.470      -59.4 
 772.693      -58.9 
 772.916      -61.9 
 773.139      -64.5 
 773.363      -66.9 
 773.586      -67.1 
 773.809      -60.6 
 774.033      -61.9 
 774.256      -63.2 
 774.479      -66.3 
 774.703      -58.8 
 774.926      -52.8 
 775.149      -52.1 
 775.372      -56.7 
 775.596      -60.1 
 775.819      -59.5 
 776.042      -60.0 
 776.266      -63.3 
 776.489      -65.6 
 776.712      -65.4 
 776.936      -67.3 
 777.159      -69.7 
 777.382      -69.4 
 777.605      -71.1 
 777.829      -68.1 
 778.052      -62.5 
 778.275      -64.1 
 778.499      -62.9 
 778.722      -62.0 
 778.945      -64.2 
 779.169      -65.6 
 779.392      -67.9 
 779.615      -61.5 
 779.838      -66.9 
 780.062      -63.9 
 780.285      -59.0 
 780.508      -63.0 
 780.732      -61.3 
 780.955      -58.8 
 781.178      -59.3 
 781.401      -65.5 
 781.625      -59.4 
 781.848      -63.5 
 782.071      -69.8 
 782.295      -72.6 
 782.518      -68.2 
 782.741      -64.8 
 782.965      -59.5 
 783.188      -64.3 
 783.411      -63.2 
 783.634      -61.0 
 783.858      -60.6 
 784.081      -62.1 
 784.304      -60.5 
 784.528      -63.4 
 784.751      -69.7 
 784.974      -66.6 
 785.198      -62.8 
 785.421      -61.3 
 785.644      -62.4 
 785.867      -62.2 
 786.091      -62.3 
 786.314      -57.9 
 786.537      -53.2 
 786.761      -51.8 
 786.984      -61.1 
 787.207      -63.2 
 787.431      -64.5 
 787.654      -61.7 
 787.877      -71.5 
 788.100      -69.9 
 788.324      -66.5 
 788.547      -67.0 
 788.770      -69.9 
 788.994      -67.9 
 789.217      -68.9 
 789.440      -64.8 
 789.663      -59.7 
 789.887      -61.0 
 790.110      -65.8 
 790.333      -62.3 
 790.557      -62.4 
 790.780      -69.1 
 791.003      -64.2 
 791.227      -60.0 
 791.450      -54.6 
 791.673      -58.7 
 791.896      -62.7 
 792.120      -60.6 
 792.343      -62.0 
 792.566      -60.4 
 792.790      -59.6 
 793.013      -58.8 
 793.236      -56.4 
 793.460      -58.1 
 793.683      -58.7 
 793.906      -59.4 
 794.129      -61.5 
 794.353      -61.8 
 794.576      -58.1 
 794.799      -57.4 
 795.023      -59.2 
 795.246      -59.5 
 795.469      -61.1 
 795.693      -59.3 
 795.916      -57.5 
 796.139      -59.7 
 796.362      -65.7 
 796.586      -64.2 
 796.809      -60.8 
 797.032      -63.2 
 797.256      -64.9 
 797.479      -66.1 
 797.702      -67.1 
 797.925      -69.4 
 798.149      -66.4 
 798.372      -66.8 
 798.595      -66.9 
 798.819      -65.9 
 799.042      -63.8 
 799.265      -66.5 
 799.489      -63.1 
 799.712      -64.3 
 799.935      -66.5 
 800.158      -61.6 
 800.382      -62.3 
 800.605      -61.2 
 800.828      -60.0 
 801.052      -55.0 
 801.275      -56.9 
 801.498      -63.2 
 801.722      -63.9 
 801.945      -61.1 
 802.168      -60.5 
 802.391      -58.0 
 802.615      -55.8 
 802.838      -56.7 
 803.061      -56.7 
 803.285      -63.9 
 803.508      -67.7 
 803.731      -63.1 
 803.955      -61.7 
 804.178      -60.3 
 804.401      -56.4 
 804.624      -61.6 
 804.848      -65.9 
 805.071      -68.2 
 805.294      -66.0 
 805.518      -67.0 
 805.741      -69.1 
 805.964      -66.1 
 806.187      -67.8 
 806.411      -66.0 
 806.634      -64.1 
 806.857      -62.6 
 807.081      -60.0 
 807.304      -62.9 
 807.527      -63.4 
 807.751      -56.3 
 807.974      -59.3 
 808.197      -63.6 
 808.420      -64.7 
 808.644      -62.0 
 808.867      -65.5 
 809.090      -65.4 
 809.314      -65.0 
 809.537      -64.0 
 809.760      -66.5 
 809.984      -62.4 
 810.207      -63.1 
 810.430      -62.5 
 810.653      -61.6 
 810.877      -63.2 
 811.100      -64.9 
 811.323      -64.5 
 811.547      -65.9 
 811.770      -70.8 
 811.993      -72.0 
 812.217      -73.1 
 812.440      -61.7 
 812.663      -63.1 
 812.886      -62.7 
 813.110      -70.7 
 813.333      -67.7 
 813.556      -65.4 
 813.780      -58.9 
 814.003      -59.9 
 814.226      -58.3 
 814.449      -60.6 
 814.673      -61.8 
 814.896      -63.0 
 815.119      -63.7 
 815.343      -59.8 
 815.566      -54.8 
 815.789      -53.8 
 816.013      -59.3 
 816.236      -64.9 
 816.459      -65.0 
 816.682      -62.3 
 816.906      -62.4 
 817.129      -62.7 
 817.352      -61.8 
 817.576      -61.7 
 817.799      -64.2 
 818.022      -67.0 
 818.246      -70.2 
 818.469      -62.0 
 818.692      -61.1 
 818.915      -66.2 
 819.139      -64.1 
 819.362      -65.0 
 819.585      -64.2 
 819.809      -62.5 
 820.032      -56.6 
 820.255      -55.0 
 820.479      -58.3 
 820.702      -62.0 
 820.925      -64.1 
 821.148      -61.6 
 821.372      -59.1 
 821.595      -59.9 
 821.818      -60.9 
 822.042      -61.1 
 822.265      -53.4 
 822.488      -54.7 
 822.711      -60.3 
 822.935      -64.9 
 823.158      -64.2 
 823.381      -58.8 
 823.605      -56.7 
 823.828      -56.9 
 824.051      -61.4 
 824.275      -63.4 
 824.498      -59.0 
 824.721      -63.8 
 824.944      -64.9 
 825.168      -64.5 
 825.391      -64.8 
 825.614      -63.5 
 825.838      -66.3 
 826.061      -70.1 
 826.284      -69.6 
 826.508      -65.0 
 826.731      -69.9 
 826.954      -75.0 
 827.177      -68.5 
 827.401      -66.5 
 827.624      -67.8 
 827.847      -64.2 
 828.071      -61.4 
 828.294      -59.4 
 828.517      -61.2 
 828.741      -65.2 
 828.964      -60.0 
 829.187      -56.5 
 829.410      -59.1 
 829.634      -56.5 
 829.857      -53.9 
 830.080      -58.8 
 830.304      -58.3 
 830.527      -63.2 
 830.750      -64.0 
 830.973      -59.3 
 831.197      -62.1 
 831.420      -63.8 
 831.643      -61.7 
 831.867      -59.2 
 832.090      -58.7 
 832.313      -60.4 
 832.537      -57.2 
 832.760      -55.2 
 832.983      -57.6 
 833.206      -63.0 
 833.430      -63.0 
 833.653      -56.2 
 833.876      -56.6 
 834.100      -60.3 
 834.323      -54.9 
 834.546      -57.4 
 834.770      -55.3 
 834.993      -62.9 
 835.216      -65.4 
 835.439      -67.1 
 835.663      -73.1 
 835.886      -61.8 
 836.109      -56.9 
 836.333      -54.4 
 836.556      -57.3 
 836.779      -51.0 
 837.003      -52.2 
 837.226      -58.2 
 837.449      -63.8 
 837.672      -63.7 
 837.896      -62.2 
 838.119      -61.0 
 838.342      -60.3 
 838.566      -60.3 
 838.789      -65.2 
 839.012      -67.1 
 839.235      -67.0 
 839.459      -62.0 
 839.682      -62.1 
 839.905      -58.4 
 840.129      -54.9 
 840.352      -53.4 
 840.575      -53.6 
 840.799      -61.8 
 841.022      -67.6 
 841.245      -67.8 
 841.468      -67.2 
 841.692      -66.4 
 841.915      -65.1 
 842.138      -61.3 
 842.362      -60.7 
 842.585      -61.2 
 842.808      -64.6 
 843.032      -65.6 
 843.255      -65.0 
 843.478      -59.0 
 843.701      -53.7 
 843.925      -51.4 
 844.148      -58.0 
 844.371      -58.3 
 844.595      -64.7 
 844.818      -64.6 
 845.041      -60.6 
 845.265      -62.8 
 845.488      -60.6 
 845.711      -68.4 
 845.934      -64.4 
 846.158      -59.6 
 846.381      -62.2 
 846.604      -64.6 
 846.828      -64.1 
 847.051      -63.7 
 847.274      -62.2 
 847.497      -59.3 
 847.721      -58.1 
 847.944      -51.9 
 848.167      -52.7 
 848.391      -50.7 
 848.614      -54.6 
 848.837      -61.1 
 849.061      -59.7 
 849.284      -58.0 
 849.507      -59.9 
 849.730      -59.3 
 849.954      -66.2 
 850.177      -64.2 
 850.400      -62.6 
 850.624      -63.2 
 850.847      -58.2 
 851.070      -60.4 
 851.294      -63.2 
 851.517      -62.7 
 851.740      -60.6 
 851.963      -60.6 
 852.187      -61.6 
 852.410      -58.9 
 852.633      -51.0 
 852.857      -56.0 
 853.080      -57.6 
 853.303      -57.6 
 853.527      -59.3 
 853.750      -60.8 
 853.973      -57.1 
 854.196      -57.7 
 854.420      -59.8 
 854.643      -55.9 
 854.866      -59.7 
 855.090      -62.5 
 855.313      -60.9 
 855.536      -60.2 
 855.759      -59.8 
 855.983      -60.8 
 856.206      -57.9 
 856.429      -58.8 
 856.653      -54.1 
 856.876      -45.8 
 857.099      -51.8 
 857.323      -57.4 
 857.546      -61.0 
 857.769      -61.7 
 857.992      -51.9 
 858.216      -54.6 
 858.439      -56.7 
 858.662      -57.0 
 858.886      -60.7 
 859.109      -63.1 
 859.332      -58.8 
 859.556      -56.7 
 859.779      -56.6 
 860.002      -56.2 
 860.225      -61.5 
 860.449      -64.3 
 860.672      -60.5 
 860.895      -64.1 
 861.119      -53.3 
 861.342      -54.9 
 861.565      -60.4 
 861.789      -62.3 
 862.012      -59.1 
 862.235      -57.2 
 862.458      -56.8 
 862.682      -58.2 
 862.905      -56.7 
 863.128      -56.3 
 863.352      -61.6 
 863.575      -59.3 
 863.798      -58.7 
 864.021      -58.8 
 864.245      -54.8 
 864.468      -57.7 
 864.691      -54.7 
 864.915      -56.3 
 865.138      -61.7 
 865.361      -57.8 
 865.585      -56.1 
 865.808      -60.3 
 866.031      -54.1 
 866.254      -55.8 
 866.478      -62.1 
 866.701      -62.5 
 866.924      -60.1 
 867.148      -55.0 
 867.371      -53.2 
 867.594      -56.8 
 867.818      -59.3 
 868.041      -58.8 
 868.264      -56.5 
 868.487      -57.9 
 868.711      -59.0 
 868.934      -56.1 
 869.157      -55.3 
 869.381      -58.9 
 869.604      -60.9 
 869.827      -57.3 
 870.051      -59.0 
 870.274      -60.5 
 870.497      -62.2 
 870.720      -62.1 
 870.944      -63.7 
 871.167      -65.1 
 871.390      -62.5 
 871.614      -63.2 
 871.837      -62.2 
 872.060      -62.2 
 872.284      -59.6 
 872.507      -57.1 
 872.730      -53.2 
 872.953      -57.4 
 873.177      -54.1 
 873.400      -60.4 
 873.623      -63.2 
 873.847      -67.6 
 874.070      -64.0 
 874.293      -55.7 
 874.516      -55.7 
 874.740      -55.3 
 874.963      -55.3 
 875.186      -57.3 
 875.410      -52.4 
 875.633      -53.7 
 875.856      -51.3 
 876.080      -52.3 
 876.303      -56.4 
 876.526      -59.3 
 876.749      -59.1 
 876.973      -58.8 
 877.196      -59.0 
 877.419      -59.1 
 877.643      -61.2 
 877.866      -61.1 
 878.089      -62.3 
 878.313      -63.5 
 878.536      -60.6 
 878.759      -56.7 
 878.982      -56.8 
 879.206      -56.3 
 879.429      -53.0 
 879.652      -57.4 
 879.876      -61.0 
 880.099      -58.0 
 880.322      -54.6 
 880.546      -60.2 
 880.769      -59.8 
 880.992      -59.3 
 881.215      -61.0 
 881.439      -65.6 
 881.662      -62.8 
 881.885      -67.7 
 882.109      -64.3 
 882.332      -70.7 
 882.555      -68.7 
 882.778      -64.8 
 883.002      -61.7 
 883.225      -66.0 
 883.448      -64.6 
 883.672      -61.6 
 883.895      -65.8 
 884.118      -61.6 
 884.342      -55.3 
 884.565      -63.3 
 884.788      -65.7 
 885.011      -65.1 
 885.235      -64.2 
 885.458      -63.5 
 885.681      -59.6 
 885.905      -57.7 
 886.128      -59.2 
 886.351      -63.0 
 886.575      -62.2 
 886.798      -60.4 
 887.021      -61.9 
 887.244      -67.2 
 887.468      -65.5 
 887.691      -69.1 
 887.914      -63.0 
 888.138      -56.6 
 888.361      -53.0 
 888.584      -63.1 
 888.808      -62.3 
 889.031      -58.2 
 889.254      -67.2 
 889.477      -61.1 
 889.701      -60.0 
 889.924      -58.0 
 890.147      -56.2 
 890.371      -55.1 
 890.594      -57.1 
 890.817      -58.6 
 891.040      -58.1 
 891.264      -50.7 
 891.487      -50.4 
 891.710      -57.5 
 891.934      -62.4 
 892.157      -63.1 
 892.380      -62.3 
 892.604      -58.0 
 892.827      -54.1 
 893.050      -54.7 
 893.273      -60.3 
 893.497      -72.2 
 893.720      -72.3 
 893.943      -66.7 
 894.167      -60.2 
 894.390      -60.8 
 894.613      -61.8 
 894.837      -59.4 
 895.060      -57.0 
 895.283      -59.6 
 895.506      -58.5 
 895.730      -60.1 
 895.953      -58.8 
 896.176      -63.9 
 896.400      -60.6 
 896.623      -53.5 
 896.846      -55.4 
 897.070      -63.2 
 897.293      -59.9 
 897.516      -53.8 
 897.739      -61.3 
 897.963      -64.1 
 898.186      -60.9 
 898.409      -57.3 
 898.633      -56.3 
 898.856      -55.2 
 899.079      -56.6 
 899.302      -54.3 
 899.526      -57.7 
 899.749      -59.7 
 899.972      -61.5 
 900.196      -64.4 
 900.419      -59.0 
 900.642      -54.0 
 900.866      -55.3 
 901.089      -58.6 
 901.312      -62.7 
 901.535      -62.0 
 901.759      -65.4 
 901.982      -64.8 
 902.205      -62.4 
 902.429      -60.3 
 902.652      -64.4 
 902.875      -64.9 
 903.099      -56.4 
 903.322      -47.2 
 903.545      -54.5 
 903.768      -57.5 
 903.992      -50.5 
 904.215      -57.5 
 904.438      -60.4 
 904.662      -63.6 
 904.885      -56.7 
 905.108      -56.2 
 905.332      -62.8 
 905.555      -62.1 
 905.778      -59.5 
 906.001      -58.7 
 906.225      -59.8 
 906.448      -59.6 
 906.671      -55.5 
 906.895      -58.3 
 907.118      -61.0 
 907.341      -57.7 
 907.564      -56.5 
 907.788      -64.0 
 908.011      -63.0 
 908.234      -58.1 
 908.458      -58.2 
 908.681      -52.1 
 908.904      -53.6 
 909.128      -61.6 
 909.351      -60.7 
 909.574      -57.6 
 909.797      -50.8 
 910.021      -51.9 
 910.244      -53.3 
 910.467      -52.8 
 910.691      -52.2 
 910.914      -43.0 
 911.137      -47.0 
 911.361      -56.0 
 911.584      -56.1 
 911.807      -53.3 
 912.030      -52.4 
 912.254      -56.7 
 912.477      -61.7 
 912.700      -59.3 
 912.924      -57.6 
 913.147      -59.0 
 913.370      -64.5 
 913.594      -70.4 
 913.817      -73.0 
 914.040      -67.7 
 914.263      -61.6 
 914.487      -61.8 
 914.710      -57.9 
 914.933      -57.5 
 915.157      -57.7 
 915.380      -58.3 
 915.603      -53.2 
 915.826      -51.8 
 916.050      -53.5 
 916.273      -56.9 
 916.496      -53.8 
 916.720      -51.8 
 916.943      -57.1 
 917.166      -59.3 
 917.390      -61.1 
 917.613      -60.5 
 917.836      -60.8 
 918.059      -60.8 
 918.283      -54.1 
 918.506      -59.5 
 918.729      -55.5 
 918.953      -48.5 
 919.176      -54.0 
 919.399      -58.9 
 919.623      -56.2 
 919.846      -56.6 
 920.069      -59.4 
 920.292      -58.8 
 920.516      -60.2 
 920.739      -60.3 
 920.962      -63.6 
 921.186      -65.4 
 921.409      -62.9 
 921.632      -62.8 
 921.856      -62.6 
 922.079      -60.3 
 922.302      -61.0 
 922.525      -60.0 
 922.749      -60.5 
 922.972      -57.1 
 923.195      -52.8 
 923.419      -56.9 
 923.642      -57.0 
 923.865      -54.5 
 924.088      -59.0 
 924.312      -50.4 
 924.535      -50.6 
 924.758      -55.1 
 924.982      -61.5 
 925.205      -57.2 
 925.428      -59.5 
 925.652      -57.8 
 925.875      -56.9 
 926.098      -58.1 
 926.321      -59.3 
 926.545      -52.2 
 926.768      -48.1 
 926.991      -53.9 
 927.215      -61.6 
 927.438      -63.6 
 927.661      -58.2 
 927.885      -53.0 
 928.108      -52.5 
 928.331      -53.3 
 928.554      -53.5 
 928.778      -51.0 
 929.001      -49.0 
 929.224      -49.3 
 929.448      -58.2 
 929.671      -59.8 
 929.894      -56.1 
 930.118      -55.2 
 930.341      -57.1 
 930.564      -60.4 
 930.787      -58.4 
 931.011      -52.9 
 931.234      -55.3 
 931.457      -57.7 
 931.681      -56.4 
 931.904      -61.1 
 932.127      -64.5 
 932.350      -59.3 
 932.574      -60.2 
 932.797      -55.4 
 933.020      -61.6 
 933.244      -58.5 
 933.467      -61.7 
 933.690      -62.7 
 933.914      -59.5 
 934.137      -60.4 
 934.360      -60.0 
 934.583      -61.5 
 934.807      -62.0 
 935.030      -54.0 
 935.253      -45.6 
 935.477      -48.5 
 935.700      -54.0 
 935.923      -60.9 
 936.147      -62.7 
 936.370      -61.6 
 936.593      -55.4 
 936.816      -58.9 
 937.040      -60.3 
 937.263      -57.6 
 937.486      -55.5 
 937.710      -59.8 
 937.933      -67.0 
 938.156      -61.6 
 938.380      -58.4 
 938.603      -56.4 
 938.826      -58.0 
 939.049      -58.4 
 939.273      -58.5 
 939.496      -59.1 
 939.719      -58.0 
 939.943      -61.5 
 940.166      -57.7 
 940.389      -53.2 
 940.612      -53.9 
 940.836      -53.0 
 941.059      -52.1 
 941.282      -51.2 
 941.506      -48.5 
 941.729      -56.6 
 941.952      -50.7 
 942.176      -49.2 
 942.399      -56.7 
 942.622      -52.0 
 942.845      -53.1 
 943.069      -54.7 
 943.292      -54.5 
 943.515      -57.7 
 943.739      -54.8 
 943.962      -57.2 
 944.185      -51.1 
 944.409      -43.7 
 944.632      -46.4 
 944.855      -48.3 
 945.078      -53.5 
 945.302      -52.8 
 945.525      -51.1 
 945.748      -51.4 
 945.972      -48.8 
 946.195      -49.3 
 946.418      -48.6 
 946.642      -49.3 
 946.865      -55.8 
 947.088      -54.7 
 947.311      -53.2 
 947.535      -53.3 
 947.758      -54.8 
 947.981      -60.2 
 948.205      -59.6 
 948.428      -61.7 
 948.651      -65.7 
 948.874      -61.0 
 949.098      -57.0 
 949.321      -59.6 
 949.544      -56.9 
 949.768      -57.6 
 949.991      -57.3 
 950.214      -54.3 
 950.438      -57.8 
 950.661      -66.0 
 950.884      -59.0 
 951.107      -56.8 
 951.331      -64.2 
 951.554      -64.8 
 951.777      -66.4 
 952.001      -64.9 
 952.224      -62.6 
 952.447      -63.1 
 952.671      -64.2 
 952.894      -61.4 
 953.117      -66.0 
 953.340      -66.7 
 953.564      -63.0 
 953.787      -60.2 
 954.010      -62.4 
 954.234      -63.4 
 954.457      -60.8 
 954.680      -65.2 
 954.904      -61.7 
 955.127      -55.9 
 955.350      -55.6 
 955.573      -52.4 
 955.797      -55.0 
 956.020      -57.9 
 956.243      -58.7 
 956.467      -57.0 
 956.690      -59.5 
 956.913      -60.6 
 957.136      -58.7 
 957.360      -55.4 
 957.583      -52.8 
 957.806      -56.1 
 958.030      -57.3 
 958.253      -54.3 
 958.476      -52.6 
 958.700      -60.0 
 958.923      -63.4 
 959.146      -57.3 
 959.369      -50.9 
 959.593      -56.3 
 959.816      -57.9 
 960.039      -53.6 
 960.263      -55.9 
 960.486      -56.3 
 960.709      -58.9 
 960.933      -57.5 
 961.156      -55.6 
 961.379      -58.0 
 961.602      -51.8 
 961.826      -45.6 
 962.049      -48.0 
 962.272      -55.1 
 962.496      -59.3 
 962.719      -62.3 
 962.942      -60.1 
 963.166      -58.6 
 963.389      -61.0 
 963.612      -58.2 
 963.835      -63.7 
 964.059      -66.5 
 964.282      -61.1 
 964.505      -63.8 
 964.729      -62.4 
 964.952      -69.0 
 965.175      -67.0 
 965.398      -64.9 
 965.622      -56.0 
 965.845      -54.6 
 966.068      -57.6 
 966.292      -58.3 
 966.515      -58.2 
 966.738      -55.0 
 966.962      -55.3 
 967.185      -55.2 
 967.408      -54.1 
 967.631      -53.8 
 967.855      -58.2 
 968.078      -57.7 
 968.301      -56.0 
 968.525      -51.3 
 968.748      -54.8 
 968.971      -55.0 
 969.195      -56.4 
 969.418      -58.2 
 969.641      -55.0 
 969.864      -54.8 
 970.088      -58.6 
 970.311      -66.4 
 970.534      -60.3 
 970.758      -56.0 
 970.981      -53.5 
 971.204      -59.9 
 971.428      -57.1 
 971.651      -56.0 
 971.874      -61.5 
 972.097      -56.7 
 972.321      -62.4 
 972.544      -62.6 
 972.767      -56.3 
 972.991      -59.2 
 973.214      -57.3 
 973.437      -57.1 
 973.661      -54.8 
 973.884      -52.5 
 974.107      -52.2 
 974.330      -46.9 
 974.554      -50.1 
 974.777      -52.7 
 975.000      -57.6 
 975.224      -60.3 
 975.447      -58.9 
 975.670      -64.5 
 975.893      -57.1 
 976.117      -52.3 
 976.340      -59.8 
 976.563      -58.4 
 976.787      -51.6 
 977.010      -40.3 
 977.233      -46.0 
 977.457      -51.1 
 977.680      -56.4 
 977.903      -54.3 
 978.126      -53.7 
 978.350      -58.0 
 978.573      -49.5 
 978.796      -50.8 
 979.020      -49.5 
 979.243      -51.8 
 979.466      -51.7 
 979.690      -55.1 
 979.913      -51.4 
 980.136      -52.3 
 980.359      -54.6 
 980.583      -55.1 
 980.806      -52.7 
 981.029      -48.0 
 981.253      -47.1 
 981.476      -44.8 
 981.699      -46.5 
 981.923      -49.9 
 982.146      -44.9 
 982.369      -43.0 
 982.592      -44.1 
 982.816      -44.7 
 983.039      -45.9 
 983.262      -47.0 
 983.486      -52.8 
 983.709      -49.1 
 983.932      -45.4 
 984.155      -45.4 
 984.379      -43.3 
 984.602      -49.3 
 984.825      -45.1 
 985.049      -44.3 
 985.272      -48.8 
 985.495      -55.3 
 985.719      -56.8 
 985.942      -53.5 
 986.165      -57.7 
 986.388      -54.1 
 986.612      -56.3 
 986.835      -62.0 
 987.058      -69.9 
 987.282      -66.4 
 987.505      -64.8 
 987.728      -70.3 
 987.952      -80.5 
 988.175      -77.3 
 988.398      -78.9 
 988.621      -86.9 
 988.845      -87.4 
 989.068      -80.3 
 989.291      -79.9 
 989.515      -75.1 
 989.738      -82.8 
 989.961      -87.6 
 990.185      -88.7 
 990.408      -79.7 
 990.631      -68.1 
 990.854      -68.5 
 991.078      -72.8 
 991.301      -69.9 
 991.524      -69.1 
 991.748      -74.3 
 991.971      -75.9 
 992.194      -77.4 
 992.417      -74.3 
 992.641      -65.5 
 992.864      -64.4 
 993.087      -61.0 
 993.311      -56.8 
 993.534      -55.2 
 993.757      -53.2 
 993.981      -54.4 
 994.204      -61.9 
 994.427      -59.7 
 994.650      -58.6 
 994.874      -56.8 
 995.097      -57.1 
 995.320      -63.1 
 995.544      -60.9 
 995.767      -56.2 
 995.990      -55.9 
 996.214      -58.7 
 996.437      -62.6 
 996.660      -63.9 
 996.883      -60.9 
 997.107      -53.8 
 997.330      -54.7 
 997.553      -56.1 
 997.777      -61.0 
 998.000      -65.4 
 998.223      -57.3 
 998.447      -50.3 
 998.670      -51.9 
 998.893      -61.1 
 999.116      -55.0 
 999.340      -52.6 
 999.563      -52.5 
 999.786      -59.8 
1000.010      -60.9 
1000.233      -61.8 
1000.456      -60.5 
1000.679      -55.2 
1000.903      -55.5 
1001.126      -55.7 
1001.349      -53.3 
1001.573      -53.0 
1001.796      -52.2 
1002.019      -49.2 
1002.243      -53.3 
1002.466      -56.2 
1002.689      -51.9 
1002.912      -50.9 
1003.136      -48.4 
1003.359      -50.5 
1003.582      -50.6 
1003.806      -53.7 
1004.029      -62.2 
1004.252      -62.5 
1004.476      -54.2 
1004.699      -51.0 
1004.922      -49.6 
1005.145      -53.1 
1005.369      -54.9 
1005.592      -49.1 
1005.815      -48.5 
1006.039      -51.5 
1006.262      -55.6 
1006.485      -49.5 
1006.709      -44.2 
1006.932      -51.5 
1007.155      -47.6 
1007.378      -51.0 
1007.602      -55.9 
1007.825      -53.4 
1008.048      -47.9 
1008.272      -51.4 
1008.495      -59.4 
1008.718      -56.1 
1008.941      -54.2 
1009.165      -51.0 
1009.388      -52.0 
1009.611      -56.1 
1009.835      -53.0 
1010.058      -55.5 
1010.281      -56.1 
1010.505      -55.5 
1010.728      -57.7 
1010.951      -55.7 
1011.174      -54.7 
1011.398      -54.5 
1011.621      -54.7 
1011.844      -55.3 
1012.068      -53.2 
1012.291      -47.7 
1012.514      -49.8 
1012.738      -47.2 
1012.961      -49.5 
1013.184      -52.3 
1013.407      -53.6 
1013.631      -58.8 
1013.854      -57.1 
1014.077      -59.6 
1014.301      -59.5 
1014.524      -60.7 
1014.747      -57.6 
1014.971      -61.4 
1015.194      -61.2 
1015.417      -63.8 
1015.640      -58.9 
1015.864      -53.6 
1016.087      -53.3 
1016.310      -54.7 
1016.534      -54.0 
1016.757      -57.1 
1016.980      -54.5 
1017.203      -47.9 
1017.427      -53.4 
1017.650      -59.8 
1017.873      -59.2 
1018.097      -59.8 
1018.320      -60.0 
1018.543      -58.3 
1018.767      -57.4 
1018.990      -56.5 
1019.213      -60.8 
1019.436      -61.2 
1019.660      -63.0 
1019.883      -58.1 
1020.106      -62.1 
1020.330      -59.8 
1020.553      -59.7 
1020.776      -56.4 
1021.000      -61.4 
1021.223      -61.6 
1021.446      -50.7 
1021.669      -49.7 
1021.893      -59.2 
1022.116      -54.2 
1022.339      -52.0 
1022.563      -46.7 
1022.786      -50.0 
1023.009      -52.0 
1023.233      -56.4 
1023.456      -59.3 
1023.679      -57.4 
1023.902      -54.8 
1024.126      -56.7 
1024.349      -59.9 
1024.572      -60.0 
1024.796      -57.1 
1025.019      -52.5 
1025.242      -52.9 
1025.465      -63.0 
1025.689      -61.4 
1025.912      -60.8 
1026.135      -59.0 
1026.359      -62.7 
1026.582      -57.7 
1026.805      -57.5 
1027.029      -55.0 
1027.252      -55.9 
1027.475      -53.4 
1027.698      -57.0 
1027.922      -55.6 
1028.145      -50.4 
1028.368      -50.6 
1028.592      -48.2 
1028.815      -54.8 
1029.038      -62.1 
1029.262      -55.8 
1029.485      -48.9 
1029.708      -46.5 
1029.931      -49.6 
1030.155      -53.5 
1030.378      -52.9 
1030.601      -55.6 
1030.825      -59.9 
1031.048      -59.4 
1031.271      -55.9 
1031.495      -61.1 
1031.718      -60.3 
1031.941      -54.6 
1032.164      -53.6 
1032.388      -55.7 
1032.611      -55.7 
1032.834      -61.4 
1033.058      -62.8 
1033.281      -62.4 
1033.504      -61.7 
1033.727      -61.6 
1033.951      -60.8 
1034.174      -60.8 
1034.397      -49.6 
1034.621      -50.4 
1034.844      -56.4 
1035.067      -53.8 
1035.291      -51.6 
1035.514      -50.7 
1035.737      -53.9 
1035.960      -48.4 
1036.184      -49.8 
1036.407      -49.5 
1036.630      -54.7 
1036.854      -52.4 
1037.077      -55.6 
1037.300      -57.8 
1037.524      -57.7 
1037.747      -56.9 
1037.970      -55.3 
1038.193      -54.2 
1038.417      -54.8 
1038.640      -51.6 
1038.863      -49.0 
1039.087      -50.9 
1039.310      -50.7 
1039.533      -45.9 
1039.757      -50.0 
1039.980      -57.4 
1040.203      -58.3 
1040.426      -53.8 
1040.650      -53.9 
1040.873      -50.6 
1041.096      -50.3 
1041.320      -46.7 
1041.543      -45.8 
1041.766      -48.4 
1041.989      -48.6 
1042.213      -51.1 
1042.436      -58.7 
1042.659      -54.2 
1042.883      -53.4 
1043.106      -55.0 
1043.329      -60.0 
1043.553      -61.3 
1043.776      -61.9 
1043.999      -63.9 
1044.222      -55.0 
1044.446      -55.9 
1044.669      -59.4 
1044.892      -53.7 
1045.116      -46.8 
1045.339      -54.1 
1045.562      -58.2 
1045.786      -49.7 
1046.009      -53.6 
1046.232      -56.5 
1046.455      -53.0 
1046.679      -51.4 
1046.902      -50.3 
1047.125      -50.6 
1047.349      -55.6 
1047.572      -62.0 
1047.795      -55.1 
1048.019      -54.0 
1048.242      -55.5 
1048.465      -54.6 
1048.688      -49.5 
1048.912      -54.9 
1049.135      -59.8 
1049.358      -51.1 
1049.582      -50.8 
1049.805      -62.0 
1050.028      -66.7 
1050.251      -55.7 
1050.475      -57.5 
1050.698      -59.0 
1050.921      -61.6 
1051.145      -57.9 
1051.368      -55.7 
1051.591      -50.3 
1051.815      -56.0 
1052.038      -58.4 
1052.261      -54.0 
1052.484      -62.2 
1052.708      -57.0 
1052.931      -54.1 
1053.154      -51.2 
1053.378      -56.1 
1053.601      -64.6 
1053.824      -60.7 
1054.048      -51.4 
1054.271      -51.7 
1054.494      -42.3 
1054.717      -48.6 
1054.941      -52.3 
1055.164      -57.1 
1055.387      -58.9 
1055.611      -57.1 
1055.834      -55.9 
1056.057      -53.0 
1056.281      -52.3 
1056.504      -49.1 
1056.727      -49.5 
1056.950      -51.0 
1057.174      -50.9 
1057.397      -46.5 
1057.620      -46.8 
1057.844      -47.1 
1058.067      -53.5 
1058.290      -53.7 
1058.513      -52.6 
1058.737      -50.1 
1058.960      -47.4 
1059.183      -50.0 
1059.407      -54.1 
1059.630      -56.6 
1059.853      -57.3 
1060.077      -56.3 
1060.300      -56.1 
1060.523      -55.8 
1060.746      -60.3 
1060.970      -57.1 
1061.193      -52.2 
1061.416      -51.6 
1061.640      -55.6 
1061.863      -62.4 
1062.086      -66.4 
1062.310      -66.5 
1062.533      -56.8 
1062.756      -63.8 
1062.979      -61.0 
1063.203      -59.7 
1063.426      -53.5 
1063.649      -56.5 
1063.873      -55.9 
1064.096      -54.7 
1064.319      -53.7 
1064.543      -47.7 
1064.766      -51.7 
1064.989      -56.6 
1065.212      -51.3 
1065.436      -48.0 
1065.659      -46.4 
1065.882      -49.7 
1066.106      -47.0 
1066.329      -54.4 
1066.552      -53.0 
1066.775      -52.6 
1066.999      -53.3 
1067.222      -50.6 
1067.445      -56.2 
1067.669      -60.3 
1067.892      -53.8 
1068.115      -53.6 
1068.339      -54.1 
1068.562      -57.6 
1068.785      -60.2 
1069.008      -58.7 
1069.232      -54.5 
1069.455      -54.6 
1069.678      -53.6 
1069.902      -49.3 
1070.125      -58.4 
1070.348      -59.0 
1070.572      -52.9 
1070.795      -59.4 
1071.018      -52.4 
1071.241      -51.0 
1071.465      -51.5 
1071.688      -49.1 
1071.911      -49.3 
1072.135      -57.0 
1072.358      -60.3 
1072.581      -58.0 
1072.805      -54.0 
1073.028      -49.6 
1073.251      -52.6 
1073.474      -52.4 
1073.698      -60.1 
1073.921      -56.0 
1074.144      -59.4 
1074.368      -55.8 
1074.591      -50.9 
1074.814      -47.3 
1075.038      -51.3 
1075.261      -57.4 
1075.484      -48.8 
1075.707      -55.2 
1075.931      -53.7 
1076.154      -50.5 
1076.377      -48.5 
1076.601      -56.4 
1076.824      -53.7 
1077.047      -53.2 
1077.270      -47.1 
1077.494      -54.4 
1077.717      -50.6 
1077.940      -57.9 
1078.164      -58.2 
1078.387      -63.1 
1078.610      -63.7 
1078.834      -57.6 
1079.057      -46.3 
1079.280      -51.4 
1079.503      -60.2 
1079.727      -59.1 
1079.950      -57.5 
1080.173      -57.1 
1080.397      -62.7 
1080.620      -59.2 
1080.843      -52.8 
1081.067      -61.5 
1081.290      -60.6 
1081.513      -54.0 
1081.736      -54.1 
1081.960      -50.6 
1082.183      -50.9 
1082.406      -52.0 
1082.630      -50.8 
1082.853      -51.4 
1083.076      -56.3 
1083.300      -54.2 
1083.523      -49.2 
1083.746      -52.7 
1083.969      -54.5 
1084.193      -58.0 
1084.416      -57.7 
1084.639      -59.5 
1084.863      -55.1 
1085.086      -49.4 
1085.309      -53.4 
1085.532      -61.8 
1085.756      -58.0 
1085.979      -50.2 
1086.202      -49.1 
1086.426      -48.0 
1086.649      -48.8 
1086.872      -53.0 
1087.096      -52.0 
1087.319      -54.0 
1087.542      -53.8 
1087.765      -52.3 
1087.989      -47.8 
1088.212      -38.1 
1088.435      -47.1 
1088.659      -50.3 
1088.882      -58.3 
1089.105      -56.5 
1089.329      -57.5 
1089.552      -57.3 
1089.775      -63.4 
1089.998      -56.8 
1090.222      -56.1 
1090.445      -51.5 
1090.668      -58.0 
1090.892      -58.1 
1091.115      -58.7 
1091.338      -62.2 
1091.562      -51.9 
1091.785      -50.7 
1092.008      -42.3 
1092.231      -44.0 
1092.455      -43.4 
1092.678      -54.1 
1092.901      -58.1 
1093.125      -54.2 
1093.348      -51.7 
1093.571      -52.8 
1093.794      -53.2 
1094.018      -56.1 
1094.241      -59.7 
1094.464      -60.3 
1094.688      -54.0 
1094.911      -54.3 
1095.134      -58.0 
1095.358      -58.8 
1095.581      -58.9 
1095.804      -56.2 
1096.027      -51.0 
1096.251      -55.1 
1096.474      -56.3 
1096.697      -56.9 
1096.921      -54.9 
1097.144      -54.7 
1097.367      -58.7 
1097.591      -57.8 
1097.814      -60.6 
1098.037      -52.5 
1098.260      -49.5 
1098.484      -50.4 
1098.707      -59.4 
1098.930      -54.0 
1099.154      -51.3 
1099.377      -53.7 
1099.600      -52.7 
1099.824      -47.9 
1100.047      -47.3 
1100.270      -50.1 
1100.493      -57.9 
1100.717      -55.7 
1100.940      -51.2 
1101.163      -44.2 
1101.387      -49.0 
1101.610      -50.8 
1101.833      -45.9 
1102.056      -46.6 
1102.280      -59.7 
1102.503      -59.5 
1102.726      -53.1 
1102.950      -49.9 
1103.173      -54.2 
1103.396      -54.3 
1103.620      -50.5 
1103.843      -55.0 
1104.066      -55.4 
1104.289      -53.2 
1104.513      -52.6 
1104.736      -51.4 
1104.959      -47.5 
1105.183      -52.0 
1105.406      -52.8 
1105.629      -52.7 
1105.853      -52.0 
1106.076      -51.2 
1106.299      -45.9 
1106.522      -48.5 
1106.746      -49.9 
1106.969      -52.7 
1107.192      -53.5 
1107.416      -50.1 
1107.639      -53.8 
1107.862      -53.2 
1108.086      -52.5 
1108.309      -50.5 
1108.532      -51.4 
1108.755      -52.8 
1108.979      -52.1 
1109.202      -52.8 
1109.425      -57.9 
1109.649      -59.8 
1109.872      -59.7 
1110.095      -58.2 
1110.318      -53.1 
1110.542      -48.3 
1110.765      -49.8 
1110.988      -55.2 
1111.212      -50.6 
1111.435      -53.2 
1111.658      -55.3 
1111.882      -54.3 
1112.105      -56.6 
1112.328      -51.2 
1112.551      -43.9 
1112.775      -45.8 
1112.998      -48.6 
1113.221      -50.4 
1113.445      -51.9 
1113.668      -59.9 
1113.891      -64.4 
1114.115      -63.3 
1114.338      -65.5 
1114.561      -62.6 
1114.784      -61.2 
1115.008      -53.1 
1115.231      -42.3 
1115.454      -46.8 
1115.678      -50.3 
1115.901      -56.8 
1116.124      -53.1 
1116.348      -47.5 
1116.571      -51.6 
1116.794      -51.4 
1117.017      -49.7 
1117.241      -46.6 
1117.464      -50.4 
1117.687      -48.4 
1117.911      -51.6 
1118.134      -51.0 
1118.357      -57.2 
1118.580      -64.9 
1118.804      -69.5 
1119.027      -67.1 
1119.250      -60.9 
1119.474      -56.5 
1119.697      -58.6 
1119.920      -54.8 
1120.144      -50.2 
1120.367      -45.3 
1120.590      -41.3 
1120.813      -43.9 
1121.037      -51.4 
1121.260      -60.4 
1121.483      -59.7 
1121.707      -52.4 
1121.930      -49.6 
1122.153      -51.9 
1122.377      -55.6 
1122.600      -51.6 
1122.823      -47.5 
1123.046      -48.8 
1123.270      -54.0 
1123.493      -59.1 
1123.716      -57.3 
1123.940      -53.8 
1124.163      -50.6 
1124.386      -51.7 
1124.610      -51.9 
1124.833      -55.2 
1125.056      -56.6 
1125.279      -55.6 
1125.503      -51.1 
1125.726      -49.3 
1125.949      -53.2 
1126.173      -55.3 
1126.396      -52.3 
1126.619      -58.3 
1126.842      -56.7 
1127.066      -53.4 
1127.289      -55.5 
1127.512      -58.5 
1127.736      -57.9 
1127.959      -59.7 
1128.182      -56.2 
1128.406      -58.7 
1128.629      -58.9 
1128.852      -60.9 
1129.075      -56.1 
1129.299      -58.9 
1129.522      -56.9 
1129.745      -50.7 
1129.969      -48.7 
1130.192      -51.0 
1130.415      -52.2 
1130.639      -54.5 
1130.862      -48.0 
1131.085      -53.0 
1131.308      -53.9 
1131.532      -59.3 
1131.755      -53.4 
1131.978      -52.9 
1132.202      -52.6 
1132.425      -54.3 
1132.648      -55.4 
1132.872      -53.5 
1133.095      -53.0 
1133.318      -56.4 
1133.541      -60.5 
1133.765      -54.3 
1133.988      -60.5 
1134.211      -56.7 
1134.435      -57.0 
1134.658      -54.9 
1134.881      -51.2 
1135.104      -48.6 
1135.328      -50.3 
1135.551      -51.0 
1135.774      -46.6 
1135.998      -53.5 
1136.221      -51.7 
1136.444      -50.0 
1136.668      -49.6 
1136.891      -50.6 
1137.114      -57.4 
1137.337      -56.6 
1137.561      -54.6 
1137.784      -56.7 
1138.007      -54.5 
1138.231      -58.3 
1138.454      -54.3 
1138.677      -57.2 
1138.901      -59.9 
1139.124      -66.6 
1139.347      -71.1 
1139.570      -63.9 
1139.794      -58.2 
1140.017      -54.1 
1140.240      -51.4 
1140.464      -52.6 
1140.687      -50.7 
1140.910      -47.4 
1141.134      -51.4 
1141.357      -57.4 
1141.580      -61.6 
1141.803      -57.7 
1142.027      -59.1 
1142.250      -59.1 
1142.473      -57.2 
1142.697      -55.7 
1142.920      -54.0 
1143.143      -57.0 
1143.366      -50.6 
1143.590      -47.6 
1143.813      -42.2 
1144.036      -48.0 
1144.260      -51.4 
1144.483      -49.7 
1144.706      -50.5 
1144.930      -53.3 
1145.153      -56.7 
1145.376      -50.1 
1145.599      -47.3 
1145.823      -49.0 
1146.046      -52.2 
1146.269      -47.5 
1146.493      -49.6 
1146.716      -49.7 
1146.939      -49.1 
1147.163      -44.8 
1147.386      -52.7 
1147.609      -50.1 
1147.832      -56.0 
1148.056      -61.3 
1148.279      -60.9 
1148.502      -58.7 
1148.726      -53.3 
1148.949      -41.6 
1149.172      -43.8 
1149.396      -50.0 
1149.619      -54.8 
1149.842      -50.5 
1150.065      -52.9 
1150.289      -50.7 
1150.512      -46.0 
1150.735      -51.2 
1150.959      -54.8 
1151.182      -53.5 
1151.405      -57.8 
1151.628      -56.2 
1151.852      -52.1 
1152.075      -52.8 
1152.298      -48.7 
1152.522      -46.5 
1152.745      -49.0 
1152.968      -53.2 
1153.192      -46.0 
1153.415      -48.8 
1153.638      -53.5 
1153.861      -54.2 
1154.085      -46.8 
1154.308      -44.7 
1154.531      -42.8 
1154.755      -39.7 
1154.978      -38.6 
1155.201      -41.8 
1155.425      -49.1 
1155.648      -57.4 
1155.871      -54.7 
1156.094      -56.4 
1156.318      -52.4 
1156.541      -51.8 
1156.764      -55.7 
1156.988      -51.5 
1157.211      -50.0 
1157.434      -53.8 
1157.658      -62.0 
1157.881      -62.4 
1158.104      -53.2 
1158.327      -50.1 
1158.551      -50.8 
1158.774      -48.2 
1158.997      -48.5 
1159.221      -46.1 
1159.444      -52.5 
1159.667      -52.5 
1159.890      -53.8 
1160.114      -54.5 
1160.337      -55.0 
1160.560      -54.7 
1160.784      -59.1 
1161.007      -61.4 
1161.230      -59.3 
1161.454      -55.3 
1161.677      -50.8 
1161.900      -49.9 
1162.123      -52.5 
1162.347      -49.9 
1162.570      -56.4 
1162.793      -54.6 
1163.017      -55.4 
1163.240      -52.8 
1163.463      -52.1 
1163.687      -54.7 
1163.910      -52.5 
1164.133      -53.1 
1164.356      -51.2 
1164.580      -57.3 
1164.803      -48.7 
1165.026      -46.2 
1165.250      -46.3 
1165.473      -52.6 
1165.696      -49.6 
1165.920      -46.3 
1166.143      -51.6 
1166.366      -51.8 
1166.589      -50.6 
1166.813      -48.9 
1167.036      -53.6 
1167.259      -55.8 
1167.483      -60.8 
1167.706      -57.0 
1167.929      -55.6 
1168.152      -52.4 
1168.376      -50.5 
1168.599      -51.4 
1168.822      -54.7 
1169.046      -55.9 
1169.269      -50.2 
1169.492      -46.5 
1169.716      -47.3 
1169.939      -57.1 
1170.162      -53.7 
1170.385      -47.1 
1170.609      -48.1 
1170.832      -45.1 
1171.055      -48.3 
1171.279      -50.4 
1171.502      -53.1 
1171.725      -49.9 
1171.949      -45.6 
1172.172      -47.0 
1172.395      -47.5 
1172.618      -46.3 
1172.842      -49.1 
1173.065      -48.8 
1173.288      -52.1 
1173.512      -56.0 
1173.735      -55.9 
1173.958      -51.5 
1174.182      -47.3 
1174.405      -47.3 
1174.628      -50.6 
1174.851      -51.9 
1175.075      -50.2 
1175.298      -50.8 
1175.521      -42.8 
1175.745      -42.1 
1175.968      -47.0 
1176.191      -48.5 
1176.415      -46.9 
1176.638      -46.7 
1176.861      -50.4 
1177.084      -42.8 
1177.308      -38.2 
1177.531      -38.3 
1177.754      -45.1 
1177.978      -47.6 
1178.201      -46.0 
1178.424      -48.9 
1178.647      -48.3 
1178.871      -47.6 
1179.094      -51.2 
1179.317      -54.7 
1179.541      -54.8 
1179.764      -55.4 
1179.987      -50.9 
1180.211      -47.7 
1180.434      -48.8 
1180.657      -46.4 
1180.880      -47.6 
1181.104      -49.5 
1181.327      -44.9 
1181.550      -47.4 
1181.774      -53.3 
1181.997      -58.1 
1182.220      -53.4 
1182.444      -45.7 
1182.667      -43.8 
1182.890      -49.3 
1183.113      -49.5 
1183.337      -48.5 
1183.560      -45.9 
1183.783      -46.3 
1184.007      -41.2 
1184.230      -44.6 
1184.453      -49.0 
1184.677      -47.6 
1184.900      -47.8 
1185.123      -47.3 
1185.346      -43.9 
1185.570      -48.3 
1185.793      -49.8 
1186.016      -50.7 
1186.240      -48.9 
1186.463      -45.6 
1186.686      -47.6 
1186.909      -51.7 
1187.133      -46.1 
1187.356      -44.6 
1187.579      -48.1 
1187.803      -54.2 
1188.026      -45.4 
1188.249      -47.4 
1188.473      -51.5 
1188.696      -53.1 
1188.919      -52.7 
1189.142      -45.9 
1189.366      -49.4 
1189.589      -55.0 
1189.812      -56.4 
1190.036      -55.3 
1190.259      -51.4 
1190.482      -50.5 
1190.706      -48.5 
1190.929      -50.1 
1191.152      -43.4 
1191.375      -42.3 
1191.599      -48.7 
1191.822      -54.6 
1192.045      -51.2 
1192.269      -50.4 
1192.492      -46.8 
1192.715      -43.3 
1192.939      -43.5 
1193.162      -53.5 
1193.385      -54.6 
1193.608      -49.3 
1193.832      -49.3 
1194.055      -47.1 
1194.278      -47.3 
1194.502      -44.4 
1194.725      -45.4 
1194.948      -44.9 
1195.171      -46.6 
1195.395      -47.9 
1195.618      -46.6 
1195.841      -46.3 
1196.065      -53.6 
1196.288      -49.7 
1196.511      -55.5 
1196.735      -50.6 
1196.958      -48.2 
1197.181      -45.4 
1197.404      -51.8 
1197.628      -52.1 
1197.851      -52.4 
1198.074      -50.3 
1198.298      -46.4 
1198.521      -49.1 
1198.744      -49.3 
1198.968      -48.7 
1199.191      -46.4 
1199.414      -51.7 
1199.637      -51.7 
1199.861      -49.1 
1200.084      -49.1 
1200.307      -49.8 
1200.531      -46.0 
1200.754      -41.9 
1200.977      -43.1 
1201.201      -39.9 
1201.424      -40.8 
1201.647      -42.8 
1201.870      -46.0 
1202.094      -48.5 
1202.317      -44.8 
1202.540      -43.3 
1202.764      -41.1 
1202.987      -44.9 
1203.210      -46.7 
1203.433      -45.8 
1203.657      -49.3 
1203.880      -47.1 
1204.103      -51.9 
1204.327      -49.9 
1204.550      -40.5 
1204.773      -43.4 
1204.997      -48.1 
1205.220      -46.5 
1205.443      -48.2 
1205.666      -45.5 
1205.890      -38.9 
1206.113      -43.2 
1206.336      -45.1 
1206.560      -43.8 
1206.783      -38.8 
1207.006      -42.3 
1207.230      -46.1 
1207.453      -43.8 
1207.676      -45.7 
1207.899      -41.5 
1208.123      -43.0 
1208.346      -40.8 
1208.569      -47.4 
1208.793      -52.6 
1209.016      -54.0 
1209.239      -50.9 
1209.463      -49.6 
1209.686      -49.0 
1209.909      -53.3 
1210.132      -58.9 
1210.356      -54.1 
1210.579      -48.4 
1210.802      -42.4 
1211.026      -40.3 
1211.249      -39.7 
1211.472      -49.7 
1211.695      -57.3 
1211.919      -52.2 
1212.142      -55.8 
1212.365      -55.1 
1212.589      -44.8 
1212.812      -47.0 
1213.035      -44.5 
1213.259      -44.4 
1213.482      -51.2 
1213.705      -49.8 
1213.928      -44.4 
1214.152      -46.8 
1214.375      -58.1 
1214.598      -55.8 
1214.822      -49.1 
1215.045      -54.2 
1215.268      -51.4 
1215.492      -51.8 
1215.715      -48.7 
1215.938      -49.7 
1216.161      -53.1 
1216.385      -52.8 
1216.608      -47.3 
1216.831      -48.5 
1217.055      -48.3 
1217.278      -44.8 
1217.501      -45.0 
1217.725      -44.0 
1217.948      -49.3 
1218.171      -50.6 
1218.394      -50.9 
1218.618      -42.4 
1218.841      -47.7 
1219.064      -52.8 
1219.288      -48.4 
1219.511      -43.9 
1219.734      -45.7 
1219.957      -50.0 
1220.181      -54.1 
1220.404      -46.6 
1220.627      -46.2 
1220.851      -49.0 
1221.074      -51.6 
1221.297      -52.7 
1221.521      -53.0 
1221.744      -53.4 
1221.967      -48.4 
1222.190      -45.2 
1222.414      -44.5 
1222.637      -46.6 
1222.860      -44.1 
1223.084      -46.2 
1223.307      -50.8 
1223.530      -45.7 
1223.754      -43.7 
1223.977      -49.5 
1224.200      -56.9 
1224.423      -53.5 
1224.647      -49.0 
1224.870      -44.6 
1225.093      -37.0 
1225.317      -40.1 
1225.540      -43.7 
1225.763      -44.2 
1225.987      -40.6 
1226.210      -42.0 
1226.433      -41.7 
1226.656      -47.1 
1226.880      -47.8 
1227.103      -48.8 
1227.326      -41.2 
1227.550      -40.1 
1227.773      -35.0 
1227.996      -47.0 
1228.219      -46.7 
1228.443      -47.5 
1228.666      -48.7 
1228.889      -50.2 
1229.113      -45.8 
1229.336      -37.9 
1229.559      -41.9 
1229.783      -43.5 
1230.006      -44.4 
1230.229      -48.2 
1230.452      -48.3 
1230.676      -49.1 
1230.899      -46.5 
1231.122      -46.0 
1231.346      -47.7 
1231.569      -39.5 
1231.792      -36.7 
1232.016      -52.8 
1232.239      -57.1 
1232.462      -54.3 
1232.685      -43.1 
1232.909      -48.5 
1233.132      -53.4 
1233.355      -49.1 
1233.579      -48.7 
1233.802      -50.8 
1234.025      -53.0 
1234.249      -47.1 
1234.472      -56.1 
1234.695      -51.0 
1234.918      -49.0 
1235.142      -55.6 
1235.365      -50.6 
1235.588      -55.7 
1235.812      -48.5 
1236.035      -47.2 
1236.258      -46.9 
1236.481      -41.8 
1236.705      -43.7 
1236.928      -50.7 
1237.151      -51.6 
1237.375      -54.7 
1237.598      -53.8 
1237.821      -51.5 
1238.045      -51.2 
1238.268      -50.3 
1238.491      -55.1 
1238.714      -51.5 
1238.938      -53.5 
1239.161      -45.5 
1239.384      -42.8 
1239.608      -50.0 
1239.831      -50.8 
1240.054      -48.8 
1240.278      -50.3 
1240.501      -44.6 
1240.724      -42.0 
1240.947      -44.4 
1241.171      -45.1 
1241.394      -48.9 
1241.617      -48.5 
1241.841      -57.0 
1242.064      -49.1 
1242.287      -50.7 
1242.511      -47.6 
1242.734      -50.0 
1242.957      -47.3 
1243.180      -48.7 
1243.404      -50.5 
1243.627      -46.6 
1243.850      -49.2 
1244.074      -47.2 
1244.297      -46.0 
1244.520      -40.5 
1244.743      -39.4 
1244.967      -41.3 
1245.190      -41.9 
1245.413      -44.1 
1245.637      -45.4 
1245.860      -47.7 
1246.083      -51.1 
1246.307      -54.7 
1246.530      -51.4 
1246.753      -51.5 
1246.976      -45.9 
1247.200      -48.4 
1247.423      -49.0 
1247.646      -50.9 
1247.870      -49.7 
1248.093      -48.0 
1248.316      -49.3 
1248.540      -51.6 
1248.763      -51.5 
1248.986      -51.3 
1249.209      -46.1 
1249.433      -41.1 
1249.656      -41.0 
1249.879      -38.6 
1250.103      -46.2 
1250.326      -53.2 
1250.549      -53.6 
1250.773      -51.3 
1250.996      -51.9 
1251.219      -48.4 
1251.442      -44.3 
1251.666      -47.1 
1251.889      -52.6 
1252.112      -45.5 
1252.336      -41.3 
1252.559      -50.9 
1252.782      -49.7 
1253.005      -43.1 
1253.229      -40.5 
1253.452      -48.2 
1253.675      -47.7 
1253.899      -52.6 
1254.122      -53.4 
1254.345      -51.9 
1254.569      -58.8 
1254.792      -58.5 
1255.015      -56.0 
1255.238      -52.5 
1255.462      -51.7 
1255.685      -48.5 
1255.908      -49.3 
1256.132      -49.6 
1256.355      -52.5 
1256.578      -55.7 
1256.802      -57.3 
1257.025      -49.3 
1257.248      -50.3 
1257.471      -52.3 
1257.695      -51.4 
1257.918      -53.0 
1258.141      -50.9 
1258.365      -51.7 
1258.588      -49.5 
1258.811      -48.4 
1259.035      -47.1 
1259.258      -52.5 
1259.481      -52.9 
1259.704      -39.9 
1259.928      -46.4 
1260.151      -46.7 
1260.374      -47.1 
1260.598      -46.4 
1260.821      -38.5 
1261.044      -44.3 
1261.267      -52.4 
1261.491      -51.8 
1261.714      -46.8 
1261.937      -50.7 
1262.161      -53.6 
1262.384      -46.1 
1262.607      -45.1 
1262.831      -39.9 
1263.054      -47.3 
1263.277      -46.5 
1263.500      -43.7 
1263.724      -43.3 
1263.947      -47.4 
1264.170      -49.4 
1264.394      -44.9 
1264.617      -41.8 
1264.840      -45.8 
1265.064      -51.8 
1265.287      -48.8 
1265.510      -48.0 
1265.733      -50.8 
1265.957      -59.4 
1266.180      -56.1 
1266.403      -53.7 
1266.627      -50.3 
1266.850      -44.9 
1267.073      -40.4 
1267.297      -42.2 
1267.520      -44.1 
1267.743      -37.6 
1267.966      -45.2 
1268.190      -49.3 
1268.413      -49.4 
1268.636      -48.2 
1268.860      -46.5 
1269.083      -39.6 
1269.306      -37.6 
1269.529      -41.1 
1269.753      -43.1 
1269.976      -48.0 
1270.199      -53.4 
1270.423      -52.6 
1270.646      -49.4 
1270.869      -45.5 
1271.093      -44.6 
1271.316      -43.6 
1271.539      -44.9 
1271.762      -36.7 
1271.986      -30.5 
1272.209      -40.7 
1272.432      -42.4 
1272.656      -41.1 
1272.879      -41.2 
1273.102      -46.2 
1273.326      -42.6 
1273.549      -45.5 
1273.772      -47.3 
1273.995      -49.2 
1274.219      -48.8 
1274.442      -51.0 
1274.665      -45.7 
1274.889      -48.0 
1275.112      -47.9 
1275.335      -41.3 
1275.559      -41.6 
1275.782      -45.2 
1276.005      -47.4 
1276.228      -48.0 
1276.452      -50.4 
1276.675      -51.3 
1276.898      -50.3 
1277.122      -53.5 
1277.345      -61.8 
1277.568      -61.6 
1277.792      -55.5 
1278.015      -45.0 
1278.238      -43.7 
1278.461      -48.1 
1278.685      -50.3 
1278.908      -48.6 
1279.131      -45.9 
1279.355      -35.8 
1279.578      -36.9 
1279.801      -46.1 
1280.024      -44.9 
1280.248      -47.9 
1280.471      -46.4 
1280.694      -45.9 
1280.918      -52.9 
1281.141      -55.5 
1281.364      -51.8 
1281.588      -50.7 
1281.811      -47.8 
1282.034      -50.0 
1282.257      -46.7 
1282.481      -43.4 
1282.704      -45.5 
1282.927      -41.5 
1283.151      -42.9 
1283.374      -47.3 
1283.597      -55.1 
1283.821      -49.6 
1284.044      -57.4 
1284.267      -56.9 
1284.490      -50.5 
1284.714      -49.2 
1284.937      -45.7 
1285.160      -50.8 
1285.384      -44.2 
1285.607      -46.1 
1285.830      -51.1 
1286.054      -44.1 
1286.277      -34.2 
1286.500      -33.2 
1286.723      -41.8 
1286.947      -43.6 
1287.170      -45.8 
1287.393      -45.9 
1287.617      -43.1 
1287.840      -45.9 
1288.063      -43.2 
1288.286      -40.2 
1288.510      -42.8 
1288.733      -44.8 
1288.956      -45.1 
1289.180      -43.1 
1289.403      -36.1 
1289.626      -38.4 
1289.850      -44.6 
1290.073      -54.8 
1290.296      -59.0 
1290.519      -59.9 
1290.743      -53.6 
1290.966      -35.8 
1291.189      -41.3 
1291.413      -41.8 
1291.636      -45.4 
1291.859      -45.6 
1292.083      -43.1 
1292.306      -45.0 
1292.529      -47.9 
1292.752      -54.7 
1292.976      -52.6 
1293.199      -53.7 
1293.422      -53.1 
1293.646      -50.6 
1293.869      -47.5 
1294.092      -48.4 
1294.316      -43.0 
1294.539      -46.2 
1294.762      -52.9 
1294.985      -48.7 
1295.209      -44.8 
1295.432      -43.0 
1295.655      -48.2 
1295.879      -52.5 
1296.102      -56.3 
1296.325      -58.8 
1296.548      -48.8 
1296.772      -51.4 
1296.995      -48.1 
1297.218      -46.8 
1297.442      -47.9 
1297.665      -48.8 
1297.888      -46.0 
1298.112      -48.1 
1298.335      -42.1 
1298.558      -44.4 
1298.781      -41.1 
1299.005      -38.3 
1299.228      -47.0 
1299.451      -52.7 
1299.675      -53.5 
1299.898      -45.1 
1300.121      -47.3 
1300.345      -50.9 
1300.568      -49.6 
1300.791      -47.1 
1301.014      -54.2 
1301.238      -50.5 
1301.461      -53.9 
1301.684      -61.7 
1301.908      -52.6 
1302.131      -47.8 
1302.354      -50.3 
1302.578      -45.6 
1302.801      -45.5 
1303.024      -43.9 
1303.247      -46.7 
1303.471      -45.2 
1303.694      -43.7 
1303.917      -47.4 
1304.141      -47.2 
1304.364      -41.9 
1304.587      -42.5 
1304.810      -50.7 
1305.034      -54.1 
1305.257      -53.4 
1305.480      -49.5 
1305.704      -47.4 
1305.927      -41.5 
1306.150      -44.2 
1306.374      -48.7 
1306.597      -39.5 
1306.820      -41.4 
1307.043      -42.3 
1307.267      -49.4 
1307.490      -48.5 
1307.713      -52.4 
1307.937      -49.8 
1308.160      -45.1 
1308.383      -48.0 
1308.607      -50.2 
1308.830      -53.7 
1309.053      -48.7 
1309.276      -52.0 
1309.500      -49.0 
1309.723      -50.9 
1309.946      -52.2 
1310.170      -52.1 
1310.393      -46.9 
1310.616      -50.7 
1310.840      -54.2 
1311.063      -57.2 
1311.286      -54.3 
1311.509      -49.9 
1311.733      -45.5 
1311.956      -44.5 
1312.179      -53.1 
1312.403      -49.0 
1312.626      -53.0 
1312.849      -57.5 
1313.072      -57.6 
1313.296      -54.8 
1313.519      -52.1 
1313.742      -48.7 
1313.966      -43.4 
1314.189      -50.5 
1314.412      -52.4 
1314.636      -47.3 
1314.859      -48.7 
1315.082      -44.2 
1315.305      -43.4 
1315.529      -50.6 
1315.752      -46.5 
1315.975      -43.0 
1316.199      -49.2 
1316.422      -51.4 
1316.645      -45.9 
1316.869      -46.6 
1317.092      -45.5 
1317.315      -42.7 
1317.538      -42.0 
1317.762      -47.2 
1317.985      -51.6 
1318.208      -47.4 
1318.432      -44.7 
1318.655      -44.3 
1318.878      -44.8 
1319.102      -48.2 
1319.325      -53.3 
1319.548      -55.4 
1319.771      -52.7 
1319.995      -50.1 
1320.218      -46.6 
1320.441      -48.5 
1320.665      -53.5 
1320.888      -53.6 
1321.111      -40.5 
1321.334      -40.9 
1321.558      -44.7 
1321.781      -47.9 
1322.004      -45.9 
1322.228      -40.5 
1322.451      -40.9 
1322.674      -43.6 
1322.898      -44.9 
1323.121      -46.2 
1323.344      -46.0 
1323.567      -38.2 
1323.791      -37.8 
1324.014      -44.4 
1324.237      -49.7 
1324.461      -49.1 
1324.684      -47.7 
1324.907      -44.8 
1325.131      -40.4 
1325.354      -37.4 
1325.577      -43.6 
1325.800      -44.8 
1326.024      -43.9 
1326.247      -43.4 
1326.470      -44.9 
1326.694      -38.3 
1326.917      -38.4 
1327.140      -39.0 
1327.364      -38.7 
1327.587      -42.0 
1327.810      -45.8 
1328.033      -44.0 
1328.257      -42.2 
1328.480      -47.9 
1328.703      -50.8 
1328.927      -45.4 
1329.150      -46.0 
1329.373      -38.9 
1329.596      -38.7 
1329.820      -45.8 
1330.043      -48.0 
1330.266      -53.5 
1330.490      -52.0 
1330.713      -51.6 
1330.936      -49.9 
1331.160      -47.5 
1331.383      -47.3 
1331.606      -46.7 
1331.829      -50.1 
1332.053      -53.7 
1332.276      -52.2 
1332.499      -43.7 
1332.723      -34.1 
1332.946      -39.4 
1333.169      -44.5 
1333.393      -45.8 
1333.616      -45.0 
1333.839      -51.5 
1334.062      -50.0 
1334.286      -51.8 
1334.509      -51.7 
1334.732      -46.4 
1334.956      -46.5 
1335.179      -49.8 
1335.402      -55.0 
1335.626      -51.7 
1335.849      -43.6 
1336.072      -37.6 
1336.295      -30.1 
1336.519      -34.4 
1336.742      -40.6 
1336.965      -42.6 
1337.189      -44.2 
1337.412      -46.0 
1337.635      -47.6 
1337.858      -48.8 
1338.082      -54.7 
1338.305      -48.0 
1338.528      -45.7 
1338.752      -45.6 
1338.975      -52.0 
1339.198      -50.9 
1339.422      -46.5 
1339.645      -39.3 
1339.868      -40.8 
1340.091      -42.2 
1340.315      -39.2 
1340.538      -39.8 
1340.761      -42.2 
1340.985      -47.7 
1341.208      -46.3 
1341.431      -44.3 
1341.655      -50.6 
1341.878      -49.2 
1342.101      -48.6 
1342.324      -47.9 
1342.548      -52.3 
1342.771      -57.0 
1342.994      -49.9 
1343.218      -40.1 
1343.441      -44.4 
1343.664      -43.6 
1343.888      -48.8 
1344.111      -39.9 
1344.334      -42.3 
1344.557      -41.4 
1344.781      -46.3 
1345.004      -58.3 
1345.227      -56.9 
1345.451      -55.1 
1345.674      -52.0 
1345.897      -50.2 
1346.120      -51.8 
1346.344      -51.7 
1346.567      -49.3 
1346.790      -52.5 
1347.014      -48.4 
1347.237      -48.5 
1347.460      -50.0 
1347.684      -49.3 
1347.907      -47.1 
1348.130      -42.5 
1348.353      -43.5 
1348.577      -38.6 
1348.800      -43.2 
1349.023      -41.9 
1349.247      -50.2 
1349.470      -49.4 
1349.693      -47.7 
1349.917      -47.2 
1350.140      -47.4 
1350.363      -46.1 
1350.586      -45.6 
1350.810      -45.4 
1351.033      -46.1 
1351.256      -52.9 
1351.480      -52.8 
1351.703      -42.1 
1351.926      -35.9 
1352.150      -38.8 
1352.373      -43.1 
1352.596      -44.5 
1352.819      -47.5 
1353.043      -49.0 
1353.266      -42.0 
1353.489      -37.2 
1353.713      -41.2 
1353.936      -50.2 
1354.159      -50.7 
1354.382      -44.3 
1354.606      -44.1 
1354.829      -41.0 
1355.052      -48.8 
1355.276      -50.1 
1355.499      -45.9 
1355.722      -41.2 
1355.946      -48.8 
1356.169      -56.3 
1356.392      -54.1 
1356.615      -50.7 
1356.839      -45.9 
1357.062      -52.9 
1357.285      -51.5 
1357.509      -50.1 
1357.732      -48.4 
1357.955      -38.9 
1358.179      -41.9 
1358.402      -45.2 
1358.625      -45.7 
1358.848      -39.9 
1359.072      -40.9 
1359.295      -39.5 
1359.518      -43.9 
1359.742      -40.7 
1359.965      -45.8 
1360.188      -53.2 
1360.412      -50.7 
1360.635      -46.4 
1360.858      -49.0 
1361.081      -50.5 
1361.305      -48.2 
1361.528      -53.5 
1361.751      -53.2 
1361.975      -44.9 
1362.198      -54.8 
1362.421      -48.9 
1362.644      -51.4 
1362.868      -46.7 
1363.091      -41.2 
1363.314      -44.7 
1363.538      -44.6 
1363.761      -39.9 
1363.984      -38.5 
1364.208      -45.1 
1364.431      -44.1 
1364.654      -44.1 
1364.877      -39.6 
1365.101      -34.2 
1365.324      -33.9 
1365.547      -42.2 
1365.771      -41.7 
1365.994      -33.9 
1366.217      -36.6 
1366.441      -38.5 
1366.664      -38.5 
1366.887      -38.8 
1367.110      -52.9 
1367.334      -47.8 
1367.557      -39.9 
1367.780      -43.0 
1368.004      -44.7 
1368.227      -44.5 
1368.450      -53.1 
1368.674      -51.8 
1368.897      -51.0 
1369.120      -47.0 
1369.343      -46.5 
1369.567      -47.1 
1369.790      -38.1 
1370.013      -42.4 
1370.237      -46.3 
1370.460      -43.5 
1370.683      -40.7 
1370.906      -47.2 
1371.130      -47.2 
1371.353      -45.2 
1371.576      -44.0 
1371.800      -41.5 
1372.023      -45.3 
1372.246      -43.8 
1372.470      -43.7 
1372.693      -43.6 
1372.916      -42.5 
1373.139      -48.6 
1373.363      -38.4 
1373.586      -36.5 
1373.809      -46.7 
1374.033      -52.2 
1374.256      -52.7 
1374.479      -45.5 
1374.703      -44.2 
1374.926      -38.1 
1375.149      -35.4 
1375.372      -33.7 
1375.596      -38.2 
1375.819      -36.4 
1376.042      -44.3 
1376.266      -42.1 
1376.489      -36.1 
1376.712      -31.0 
1376.936      -35.3 
1377.159      -41.7 
1377.382      -43.3 
1377.605      -47.6 
1377.829      -41.5 
1378.052      -49.5 
1378.275      -52.6 
1378.499      -45.2 
1378.722      -50.1 
1378.945      -46.5 
1379.169      -44.3 
1379.392      -37.5 
1379.615      -32.2 
1379.838      -38.4 
1380.062      -40.5 
1380.285      -38.0 
1380.508      -34.1 
1380.732      -37.2 
1380.955      -37.6 
1381.178      -33.3 
1381.401      -38.0 
1381.625      -39.6 
1381.848      -40.1 
1382.071      -44.5 
1382.295      -44.0 
1382.518      -47.4 
1382.741      -55.3 
1382.965      -55.9 
1383.188      -49.0 
1383.411      -44.5 
1383.634      -38.4 
1383.858      -35.0 
1384.081      -32.0 
1384.304      -40.7 
1384.528      -45.8 
1384.751      -47.7 
1384.974      -44.5 
1385.198      -44.7 
1385.421      -48.0 
1385.644      -48.6 
1385.867      -48.2 
1386.091      -49.2 
1386.314      -50.4 
1386.537      -47.7 
1386.761      -44.3 
1386.984      -44.6 
1387.207      -42.7 
1387.431      -36.3 
1387.654      -35.1 
1387.877      -33.9 
1388.100      -44.0 
1388.324      -38.3 
1388.547      -39.1 
1388.770      -37.4 
1388.994      -31.6 
1389.217      -32.1 
1389.440      -39.1 
1389.663      -34.8 
1389.887      -27.5 
1390.110      -33.5 
1390.333      -34.0 
1390.557      -45.3 
1390.780      -41.8 
1391.003      -41.4 
1391.227      -35.1 
1391.450      -39.2 
1391.673      -50.0 
1391.896      -48.2 
1392.120      -48.6 
1392.343      -49.8 
1392.566      -44.3 
1392.790      -39.8 
1393.013      -45.5 
1393.236      -46.9 
1393.460      -41.4 
1393.683      -46.4 
1393.906      -41.4 
1394.129      -41.4 
1394.353      -42.4 
1394.576      -40.7 
1394.799      -39.7 
1395.023      -36.9 
1395.246      -48.2 
1395.469      -46.7 
1395.693      -47.9 
1395.916      -45.1 
1396.139      -42.8 
1396.362      -49.7 
1396.586      -51.1 
1396.809      -45.4 
1397.032      -40.8 
1397.256      -47.1 
1397.479      -51.6 
1397.702      -52.7 
1397.925      -47.1 
1398.149      -44.2 
1398.372      -49.4 
1398.595      -46.9 
1398.819      -44.1 
1399.042      -42.9 
1399.265      -41.4 
1399.489      -41.0 
1399.712      -37.2 
1399.935      -33.8 
1400.158      -43.7 
1400.382      -46.6 
1400.605      -37.6 
1400.828      -37.1 
1401.052      -42.7 
1401.275      -49.4 
1401.498      -52.7 
1401.722      -46.3 
1401.945      -39.9 
1402.168      -39.1 
1402.391      -38.9 
1402.615      -45.7 
1402.838      -44.9 
1403.061      -41.4 
1403.285      -38.5 
1403.508      -42.6 
1403.731      -41.3 
1403.955      -42.1 
1404.178      -51.5 
1404.401      -48.5 
1404.624      -42.0 
1404.848      -45.1 
1405.071      -41.5 
1405.294      -46.3 
1405.518      -46.1 
1405.741      -39.8 
1405.964      -34.9 
1406.187      -35.8 
1406.411      -31.3 
1406.634      -27.4 
1406.857      -32.5 
1407.081      -32.7 
1407.304      -35.4 
1407.527      -35.5 
1407.751      -37.1 
1407.974      -38.8 
1408.197      -45.6 
1408.420      -42.2 
1408.644      -36.9 
1408.867      -33.0 
1409.090      -30.6 
1409.314      -42.0 
1409.537      -43.8 
1409.760      -39.0 
1409.984      -41.0 
1410.207      -48.9 
1410.430      -47.8 
1410.653      -45.8 
1410.877      -48.0 
1411.100      -46.6 
1411.323      -42.3 
1411.547      -45.1 
1411.770      -53.3 
1411.993      -52.7 
1412.217      -40.8 
1412.440      -41.3 
1412.663      -45.7 
1412.886      -45.9 
1413.110      -44.4 
1413.333      -34.9 
1413.556      -32.9 
1413.780      -41.7 
1414.003      -43.8 
1414.226      -42.2 
1414.449      -39.3 
1414.673      -36.0 
1414.896      -28.8 
1415.119      -36.5 
1415.343      -38.1 
1415.566      -35.3 
1415.789      -50.4 
1416.013      -49.6 
1416.236      -40.0 
1416.459      -37.9 
1416.682      -35.6 
1416.906      -47.1 
1417.129      -41.1 
1417.352      -48.7 
1417.576      -44.9 
1417.799      -39.3 
1418.022      -40.7 
1418.246      -39.4 
1418.469      -36.8 
1418.692      -36.5 
1418.915      -37.0 
1419.139      -34.9 
1419.362      -38.3 
1419.585      -45.6 
1419.809      -42.9 
1420.032      -36.5 
1420.255      -43.6 
1420.479      -47.4 
1420.702      -42.9 
1420.925      -41.4 
1421.148      -33.8 
1421.372      -34.9 
1421.595      -36.5 
1421.818      -39.0 
1422.042      -43.0 
1422.265      -39.7 
1422.488      -43.4 
1422.711      -39.1 
1422.935      -48.7 
1423.158      -44.9 
1423.381      -42.1 
1423.605      -45.2 
1423.828      -46.0 
1424.051      -35.7 
1424.275      -41.5 
1424.498      -44.0 
1424.721      -39.2 
1424.944      -43.8 
1425.168      -40.0 
1425.391      -38.4 
1425.614      -39.0 
1425.838      -46.3 
1426.061      -45.7 
1426.284      -43.9 
1426.508      -42.2 
1426.731      -35.1 
1426.954      -34.9 
1427.177      -40.8 
1427.401      -43.5 
1427.624      -45.9 
1427.847      -49.5 
1428.071      -45.3 
1428.294      -49.4 
1428.517      -53.3 
1428.741      -54.6 
1428.964      -50.0 
1429.187      -49.3 
1429.410      -45.1 
1429.634      -43.7 
1429.857      -47.0 
1430.080      -47.8 
1430.304      -49.4 
1430.527      -45.6 
1430.750      -35.7 
1430.973      -36.6 
1431.197      -37.8 
1431.420      -37.0 
1431.643      -39.6 
1431.867      -39.9 
1432.090      -44.8 
1432.313      -43.9 
1432.537      -48.2 
1432.760      -48.4 
1432.983      -54.5 
1433.206      -51.7 
1433.430      -46.9 
1433.653      -46.0 
1433.876      -51.1 
1434.100      -50.1 
1434.323      -47.2 
1434.546      -51.9 
1434.770      -44.6 
1434.993      -43.3 
1435.216      -45.4 
1435.439      -45.1 
1435.663      -43.9 
1435.886      -44.6 
1436.109      -46.2 
1436.333      -43.0 
1436.556      -42.4 
1436.779      -41.9 
1437.003      -44.6 
1437.226      -46.3 
1437.449      -47.5 
1437.672      -53.2 
1437.896      -47.1 
1438.119      -46.1 
1438.342      -34.1 
1438.566      -34.1 
1438.789      -44.2 
1439.012      -50.2 
1439.235      -52.2 
1439.459      -55.0 
1439.682      -54.2 
1439.905      -46.1 
1440.129      -40.9 
1440.352      -50.0 
1440.575      -54.5 
1440.799      -56.4 
1441.022      -50.0 
1441.245      -38.4 
1441.468      -31.5 
1441.692      -39.3 
1441.915      -40.5 
1442.138      -42.1 
1442.362      -41.5 
1442.585      -44.6 
1442.808      -42.5 
1443.032      -44.9 
1443.255      -46.9 
1443.478      -52.2 
1443.701      -47.6 
1443.925      -48.3 
1444.148      -44.2 
1444.371      -42.6 
1444.595      -44.0 
1444.818      -41.7 
1445.041      -46.3 
1445.265      -42.8 
1445.488      -46.0 
1445.711      -46.0 
1445.934      -41.8 
1446.158      -41.9 
1446.381      -42.0 
1446.604      -42.0 
1446.828      -41.8 
1447.051      -42.5 
1447.274      -46.7 
1447.497      -48.3 
1447.721      -39.0 
1447.944      -42.0 
1448.167      -45.2 
1448.391      -41.3 
1448.614      -44.1 
1448.837      -45.6 
1449.061      -49.7 
1449.284      -50.2 
1449.507      -52.5 
1449.730      -45.9 
1449.954      -47.0 
1450.177      -48.1 
1450.400      -50.8 
1450.624      -58.7 
1450.847      -54.9 
1451.070      -39.8 
1451.294      -39.7 
1451.517      -39.2 
1451.740      -39.5 
1451.963      -46.8 
1452.187      -40.7 
1452.410      -47.7 
1452.633      -47.8 
1452.857      -52.1 
1453.080      -53.3 
1453.303      -54.3 
1453.527      -55.0 
1453.750      -44.5 
1453.973      -45.6 
1454.196      -43.6 
1454.420      -36.0 
1454.643      -30.7 
1454.866      -39.5 
1455.090      -44.5 
1455.313      -42.1 
1455.536      -37.9 
1455.759      -39.8 
1455.983      -43.6 
1456.206      -44.1 
1456.429      -46.6 
1456.653      -54.1 
1456.876      -48.9 
1457.099      -41.4 
1457.323      -34.8 
1457.546      -33.0 
1457.769      -37.6 
1457.992      -43.3 
1458.216      -43.0 
1458.439      -47.4 
1458.662      -51.9 
1458.886      -47.9 
1459.109      -37.7 
1459.332      -38.8 
1459.556      -40.4 
1459.779      -51.6 
1460.002      -48.3 
1460.225      -37.1 
1460.449      -35.6 
1460.672      -40.6 
1460.895      -36.6 
1461.119      -38.9 
1461.342      -45.7 
1461.565      -48.0 
1461.789      -42.5 
1462.012      -40.9 
1462.235      -43.5 
1462.458      -43.3 
1462.682      -39.5 
1462.905      -35.7 
1463.128      -42.6 
1463.352      -46.8 
1463.575      -42.5 
1463.798      -42.1 
1464.021      -44.1 
1464.245      -43.9 
1464.468      -44.5 
1464.691      -42.7 
1464.915      -43.3 
1465.138      -40.9 
1465.361      -39.2 
1465.585      -44.6 
1465.808      -46.7 
1466.031      -46.3 
1466.254      -40.8 
1466.478      -38.2 
1466.701      -36.7 
1466.924      -40.5 
1467.148      -38.5 
1467.371      -39.5 
1467.594      -42.6 
1467.818      -36.7 
1468.041      -33.0 
1468.264      -41.9 
1468.487      -49.4 
1468.711      -40.8 
1468.934      -34.0 
1469.157      -35.5 
1469.381      -34.1 
1469.604      -32.6 
1469.827      -35.0 
1470.051      -30.0 
1470.274      -36.4 
1470.497      -39.4 
1470.720      -40.3 
1470.944      -33.5 
1471.167      -41.0 
1471.390      -53.3 
1471.614      -59.5 
1471.837      -53.5 
1472.060      -38.7 
1472.284      -29.7 
1472.507      -28.0 
1472.730      -28.0 
1472.953      -30.6 
1473.177      -31.6 
1473.400      -37.7 
1473.623      -40.3 
1473.847      -37.0 
1474.070      -42.8 
1474.293      -34.1 
1474.516      -36.4 
1474.740      -44.8 
1474.963      -45.9 
1475.186      -45.8 
1475.410      -38.2 
1475.633      -40.7 
1475.856      -48.1 
1476.080      -48.2 
1476.303      -45.5 
1476.526      -45.7 
1476.749      -42.2 
1476.973      -35.1 
1477.196      -27.0 
1477.419      -27.6 
1477.643      -24.6 
1477.866      -30.2 
1478.089      -40.2 
1478.313      -37.6 
1478.536      -39.2 
1478.759      -39.1 
1478.982      -41.1 
1479.206      -41.2 
1479.429      -37.4 
1479.652      -37.7 
1479.876      -31.9 
1480.099      -31.8 
1480.322      -35.6 
1480.546      -39.2 
1480.769      -37.6 
1480.992      -41.4 
1481.215      -43.5 
1481.439      -35.4 
1481.662      -36.1 
1481.885      -35.0 
1482.109      -36.1 
1482.332      -38.4 
1482.555      -33.6 
1482.778      -37.8 
1483.002      -43.8 
1483.225      -41.4 
1483.448      -42.4 
1483.672      -42.2 
1483.895      -44.4 
1484.118      -48.1 
1484.342      -50.8 
1484.565      -48.4 
1484.788      -44.0 
1485.011      -43.0 
1485.235      -46.2 
1485.458      -47.1 
1485.681      -48.5 
1485.905      -53.2 
1486.128      -55.4 
1486.351      -47.6 
1486.575      -51.6 
1486.798      -51.4 
1487.021      -50.2 
1487.244      -46.9 
1487.468      -52.7 
1487.691      -57.5 
1487.914      -55.0 
1488.138      -55.7 
1488.361      -57.8 
1488.584      -55.7 
1488.808      -51.0 
1489.031      -56.4 
1489.254      -54.3 
1489.477      -52.9 
1489.701      -54.9 
1489.924      -53.4 
1490.147      -51.1 
1490.371      -52.3 
1490.594      -47.5 
1490.817      -49.2 
1491.040      -57.8 
1491.264      -56.8 
1491.487      -55.8 
1491.710      -53.5 
1491.934      -51.0 
1492.157      -49.2 
1492.380      -47.8 
1492.604      -48.2 
1492.827      -45.3 
1493.050      -53.3 
1493.273      -56.5 
1493.497      -55.9 
1493.720      -53.3 
1493.943      -46.4 
1494.167      -43.9 
1494.390      -44.3 
1494.613      -41.5 
1494.837      -40.6 
1495.060      -44.6 
1495.283      -48.3 
1495.506      -61.7 
1495.730      -55.7 
1495.953      -47.9 
1496.176      -53.5 
1496.400      -54.9 
1496.623      -44.8 
1496.846      -47.4 
1497.070      -45.2 
1497.293      -45.3 
1497.516      -42.5 
1497.739      -38.3 
1497.963      -47.0 
1498.186      -47.1 
1498.409      -46.6 
1498.633      -43.2 
1498.856      -47.6 
1499.079      -48.5 
1499.302      -40.9 
1499.526      -36.6 
1499.749      -40.3 
1499.972      -41.0 
1500.196      -49.9 
1500.419      -53.6 
1500.642      -51.0 
1500.866      -50.2 
1501.089      -56.6 
1501.312      -58.8 
1501.535      -44.9 
1501.759      -35.8 
1501.982      -37.2 
1502.205      -36.2 
1502.429      -38.5 
1502.652      -44.8 
1502.875      -49.2 
1503.099      -46.3 
1503.322      -42.0 
1503.545      -43.1 
1503.768      -39.1 
1503.992      -39.0 
1504.215      -47.5 
1504.438      -45.7 
1504.662      -41.1 
1504.885      -38.8 
1505.108      -37.8 
1505.332      -43.0 
1505.555      -45.4 
1505.778      -45.4 
1506.001      -45.1 
1506.225      -41.3 
1506.448      -41.5 
1506.671      -42.5 
1506.895      -44.4 
1507.118      -42.6 
1507.341      -47.2 
1507.564      -36.8 
1507.788      -31.9 
1508.011      -34.8 
1508.234      -43.3 
1508.458      -43.5 
1508.681      -34.2 
1508.904      -31.3 
1509.128      -28.5 
1509.351      -38.4 
1509.574      -38.1 
1509.797      -41.1 
1510.021      -45.5 
1510.244      -36.0 
1510.467      -35.8 
1510.691      -39.3 
1510.914      -42.8 
1511.137      -41.4 
1511.361      -34.6 
1511.584      -37.1 
1511.807      -41.0 
1512.030      -39.6 
1512.254      -39.6 
1512.477      -32.8 
1512.700      -34.6 
1512.924      -35.0 
1513.147      -38.5 
1513.370      -42.6 
1513.594      -42.7 
1513.817      -39.4 
1514.040      -33.2 
1514.263      -28.7 
1514.487      -40.9 
1514.710      -35.6 
1514.933      -39.4 
1515.157      -39.1 
1515.380      -39.6 
1515.603      -31.8 
1515.826      -35.2 
1516.050      -38.3 
1516.273      -31.4 
1516.496      -38.9 
1516.720      -43.1 
1516.943      -49.0 
1517.166      -45.4 
1517.390      -38.4 
1517.613      -34.6 
1517.836      -29.1 
1518.059      -32.5 
1518.283      -33.1 
1518.506      -31.7 
1518.729      -31.3 
1518.953      -37.7 
1519.176      -40.2 
1519.399      -40.3 
1519.623      -42.7 
1519.846      -40.5 
1520.069      -35.7 
1520.292      -33.7 
1520.516      -37.8 
1520.739      -46.2 
1520.962      -46.8 
1521.186      -42.9 
1521.409      -39.4 
1521.632      -42.7 
1521.856      -36.6 
1522.079      -42.7 
1522.302      -39.9 
1522.525      -37.2 
1522.749      -41.4 
1522.972      -43.0 
1523.195      -43.7 
1523.419      -46.7 
1523.642      -48.0 
1523.865      -44.6 
1524.088      -34.0 
1524.312      -35.8 
1524.535      -41.9 
1524.758      -40.7 
1524.982      -43.4 
1525.205      -44.8 
1525.428      -47.1 
1525.652      -51.4 
1525.875      -50.0 
1526.098      -40.1 
1526.321      -36.5 
1526.545      -37.8 
1526.768      -45.4 
1526.991      -42.7 
1527.215      -32.9 
1527.438      -36.3 
1527.661      -42.4 
1527.885      -39.4 
1528.108      -38.4 
1528.331      -39.9 
1528.554      -41.6 
1528.778      -47.3 
1529.001      -42.6 
1529.224      -42.3 
1529.448      -39.3 
1529.671      -38.9 
1529.894      -46.3 
1530.118      -43.7 
1530.341      -45.5 
1530.564      -42.5 
1530.787      -38.9 
1531.011      -38.3 
1531.234      -39.5 
1531.457      -40.8 
1531.681      -38.6 
1531.904      -37.4 
1532.127      -39.0 
1532.350      -32.1 
1532.574      -34.5 
1532.797      -37.9 
1533.020      -40.9 
1533.244      -43.1 
1533.467      -45.2 
1533.690      -37.3 
1533.914      -44.7 
1534.137      -40.8 
1534.360      -47.6 
1534.583      -54.5 
1534.807      -47.8 
1535.030      -39.4 
1535.253      -43.6 
1535.477      -43.9 
1535.700      -48.2 
1535.923      -43.8 
1536.147      -45.6 
1536.370      -40.9 
1536.593      -44.3 
1536.816      -48.0 
1537.040      -44.0 
1537.263      -42.5 
1537.486      -40.9 
1537.710      -37.7 
1537.933      -40.9 
1538.156      -39.0 
1538.380      -34.4 
1538.603      -38.7 
1538.826      -39.8 
1539.049      -37.7 
1539.273      -32.8 
1539.496      -36.6 
1539.719      -43.3 
1539.943      -42.6 
1540.166      -40.6 
1540.389      -41.0 
1540.612      -40.0 
1540.836      -36.4 
1541.059      -39.7 
1541.282      -42.1 
1541.506      -42.4 
1541.729      -39.4 
1541.952      -35.9 
1542.176      -40.9 
1542.399      -45.3 
1542.622      -37.0 
1542.845      -42.7 
1543.069      -42.8 
1543.292      -38.1 
1543.515      -40.7 
1543.739      -38.1 
1543.962      -36.8 
1544.185      -40.7 
1544.409      -36.7 
1544.632      -31.6 
1544.855      -37.0 
1545.078      -42.9 
1545.302      -40.4 
1545.525      -33.3 
1545.748      -38.6 
1545.972      -41.4 
1546.195      -32.9 
1546.418      -25.0 
1546.642      -28.6 
1546.865      -38.6 
1547.088      -42.3 
1547.311      -38.6 
1547.535      -39.1 
1547.758      -38.0 
1547.981      -38.9 
1548.205      -33.8 
1548.428      -41.2 
1548.651      -32.9 
1548.874      -34.8 
1549.098      -37.8 
1549.321      -34.3 
1549.544      -41.1 
1549.768      -33.3 
1549.991      -27.0 
1550.214      -32.3 
1550.438      -36.0 
1550.661      -37.0 
1550.884      -37.3 
1551.107      -33.4 
1551.331      -30.7 
1551.554      -37.4 
1551.777      -40.3 
1552.001      -33.2 
1552.224      -37.6 
1552.447      -37.2 
1552.671      -32.5 
1552.894      -32.9 
1553.117      -31.5 
1553.340      -31.2 
1553.564      -33.6 
1553.787      -36.8 
1554.010      -30.3 
1554.234      -29.8 
1554.457      -32.6 
1554.680      -29.2 
1554.904      -30.9 
1555.127      -34.8 
1555.350      -41.4 
1555.573      -42.9 
1555.797      -35.6 
1556.020      -30.7 
1556.243      -35.5 
1556.467      -36.1 
1556.690      -35.6 
1556.913      -31.7 
1557.136      -27.2 
1557.360      -28.5 
1557.583      -38.7 
1557.806      -38.1 
1558.030      -35.6 
1558.253      -36.0 
1558.476      -35.3 
1558.700      -33.3 
1558.923      -26.6 
1559.146      -27.6 
1559.369      -37.2 
1559.593      -38.2 
1559.816      -35.7 
1560.039      -42.4 
1560.263      -45.9 
1560.486      -45.2 
1560.709      -44.5 
1560.933      -37.4 
1561.156      -37.8 
1561.379      -37.5 
1561.602      -25.6 
1561.826      -34.6 
1562.049      -41.6 
1562.272      -43.9 
1562.496      -41.2 
1562.719      -34.1 
1562.942      -28.5 
1563.166      -29.6 
1563.389      -35.5 
1563.612      -35.3 
1563.835      -35.7 
1564.059      -45.2 
1564.282      -45.9 
1564.505      -37.6 
1564.729      -45.8 
1564.952      -44.6 
1565.175      -48.4 
1565.398      -52.0 
1565.622      -45.6 
1565.845      -46.1 
1566.068      -48.0 
1566.292      -48.8 
1566.515      -46.3 
1566.738      -50.0 
1566.962      -45.2 
1567.185      -43.4 
1567.408      -47.5 
1567.631      -39.4 
1567.855      -42.1 
1568.078      -45.9 
1568.301      -49.6 
1568.525      -43.8 
1568.748      -41.6 
1568.971      -49.3 
1569.195      -44.0 
1569.418      -41.7 
1569.641      -35.4 
1569.864      -36.4 
1570.088      -31.7 
1570.311      -34.9 
1570.534      -40.4 
1570.758      -43.7 
1570.981      -49.0 
1571.204      -41.7 
1571.428      -37.3 
1571.651      -34.1 
1571.874      -39.5 
1572.097      -34.9 
1572.321      -41.1 
1572.544      -37.8 
1572.767      -37.3 
1572.991      -35.7 
1573.214      -37.1 
1573.437      -38.1 
1573.661      -38.4 
1573.884      -36.2 
1574.107      -41.6 
1574.330      -41.1 
1574.554      -43.7 
1574.777      -47.6 
1575.000      -46.8 
1575.224      -35.5 
1575.447      -35.3 
1575.670      -33.6 
1575.893      -40.0 
1576.117      -40.6 
1576.340      -44.7 
1576.563      -39.2 
1576.787      -42.8 
1577.010      -36.8 
1577.233      -39.2 
1577.457      -41.4 
1577.680      -42.2 
1577.903      -36.1 
1578.126      -42.9 
1578.350      -46.6 
1578.573      -43.2 
1578.796      -47.9 
1579.020      -43.1 
1579.243      -42.3 
1579.466      -43.1 
1579.690      -44.1 
1579.913      -43.6 
1580.136      -47.1 
1580.359      -51.9 
1580.583      -50.6 
1580.806      -41.6 
1581.029      -42.3 
1581.253      -39.8 
1581.476      -32.9 
1581.699      -36.5 
1581.923      -46.6 
1582.146      -53.0 
1582.369      -49.2 
1582.592      -40.8 
1582.816      -36.1 
1583.039      -43.4 
1583.262      -41.6 
1583.486      -39.1 
1583.709      -40.9 
1583.932      -49.1 
1584.155      -54.2 
1584.379      -52.9 
1584.602      -40.4 
1584.825      -38.9 
1585.049      -45.1 
1585.272      -47.3 
1585.495      -48.0 
1585.719      -42.5 
1585.942      -44.4 
1586.165      -48.9 
1586.388      -50.0 
1586.612      -49.3 
1586.835      -42.4 
1587.058      -38.9 
1587.282      -40.1 
1587.505      -39.8 
1587.728      -39.2 
1587.952      -40.5 
1588.175      -38.7 
1588.398      -43.8 
1588.621      -39.3 
1588.845      -33.6 
1589.068      -36.2 
1589.291      -35.1 
1589.515      -39.8 
1589.738      -39.0 
1589.961      -41.3 
1590.185      -38.0 
1590.408      -30.6 
1590.631      -27.9 
1590.854      -36.2 
1591.078      -41.4 
1591.301      -42.4 
1591.524      -37.4 
1591.748      -31.0 
1591.971      -33.7 
1592.194      -38.1 
1592.417      -41.4 
1592.641      -45.6 
1592.864      -39.3 
1593.087      -40.5 
1593.311      -40.8 
1593.534      -42.4 
1593.757      -42.1 
1593.981      -45.4 
1594.204      -35.7 
1594.427      -34.1 
1594.650      -39.0 
1594.874      -51.5 
1595.097      -51.7 
1595.320      -43.6 
1595.544      -42.2 
1595.767      -36.9 
1595.990      -40.5 
1596.214      -45.4 
1596.437      -43.9 
1596.660      -38.9 
1596.883      -34.7 
1597.107      -33.3 
1597.330      -34.0 
1597.553      -45.3 
1597.777      -41.8 
1598.000      -36.3 
1598.223      -33.8 
1598.447      -31.4 
1598.670      -33.8 
1598.893      -31.1 
1599.116      -32.9 
1599.340      -40.8 
1599.563      -35.7 
1599.786      -38.3 
1600.010      -34.8 
1600.233      -37.1 
1600.456      -39.4 
1600.679      -37.4 
1600.903      -36.2 
1601.126      -40.3 
1601.349      -36.2 
1601.573      -36.9 
1601.796      -42.9 
1602.019      -45.9 
1602.243      -38.7 
1602.466      -39.8 
1602.689      -43.5 
1602.912      -41.1 
1603.136      -35.6 
1603.359      -40.4 
1603.582      -41.7 
1603.806      -30.2 
1604.029      -26.2 
1604.252      -30.3 
1604.476      -30.6 
1604.699      -31.3 
1604.922      -30.0 
1605.145      -38.3 
1605.369      -43.0 
1605.592      -37.6 
1605.815      -40.7 
1606.039      -36.5 
1606.262      -38.1 
1606.485      -34.4 
1606.709      -33.7 
1606.932      -39.2 
1607.155      -33.7 
1607.378      -31.3 
1607.602      -27.8 
1607.825      -37.1 
1608.048      -39.5 
1608.272      -35.7 
1608.495      -40.5 
1608.718      -35.8 
1608.941      -35.0 
1609.165      -39.4 
1609.388      -48.3 
1609.611      -44.0 
1609.835      -39.4 
1610.058      -42.4 
1610.281      -41.0 
1610.505      -36.1 
1610.728      -31.6 
1610.951      -34.0 
1611.174      -27.3 
1611.398      -30.5 
1611.621      -24.3 
1611.844      -26.8 
1612.068      -29.9 
1612.291      -27.9 
1612.514      -25.2 
1612.738      -31.8 
1612.961      -28.7 
1613.184      -31.2 
1613.407      -30.8 
1613.631      -29.7 
1613.854      -33.9 
1614.077      -36.8 
1614.301      -29.1 
1614.524      -29.4 
1614.747      -39.4 
1614.971      -39.0 
1615.194      -38.8 
1615.417      -35.6 
1615.640      -39.0 
1615.864      -36.6 
1616.087      -29.3 
1616.310      -23.9 
1616.534      -32.0 
1616.757      -34.3 
1616.980      -38.6 
1617.203      -45.3 
1617.427      -42.8 
1617.650      -38.7 
1617.873      -33.0 
1618.097      -27.6 
1618.320      -28.6 
1618.543      -28.9 
1618.767      -28.7 
1618.990      -34.3 
1619.213      -41.9 
1619.436      -40.2 
1619.660      -39.7 
1619.883      -35.6 
1620.106      -29.3 
1620.330      -33.4 
1620.553      -40.6 
1620.776      -38.4 
1621.000      -37.5 
1621.223      -37.4 
1621.446      -39.9 
1621.669      -35.2 
1621.893      -37.6 
1622.116      -31.3 
1622.339      -35.1 
1622.563      -31.7 
1622.786      -25.9 
1623.009      -32.1 
1623.233      -35.0 
1623.456      -21.5 
1623.679      -30.6 
1623.902      -32.7 
1624.126      -34.7 
1624.349      -39.5 
1624.572      -40.1 
1624.796      -36.6 
1625.019      -40.6 
1625.242      -34.3 
1625.465      -25.7 
1625.689      -32.4 
1625.912      -41.5 
1626.135      -39.7 
1626.359      -43.2 
1626.582      -42.0 
1626.805      -35.0 
1627.029      -40.4 
1627.252      -44.4 
1627.475      -35.7 
1627.698      -37.7 
1627.922      -36.8 
1628.145      -33.6 
1628.368      -39.4 
1628.592      -37.7 
1628.815      -30.5 
1629.038      -36.9 
1629.262      -34.1 
1629.485      -35.9 
1629.708      -35.5 
1629.931      -34.1 
1630.155      -27.0 
1630.378      -32.4 
1630.601      -41.0 
1630.825      -41.1 
1631.048      -34.0 
1631.271      -31.1 
1631.495      -29.1 
1631.718      -24.0 
1631.941      -35.7 
1632.164      -43.7 
1632.388      -41.8 
1632.611      -29.1 
1632.834      -28.0 
1633.058      -24.9 
1633.281      -31.7 
1633.504      -33.0 
1633.727      -28.8 
1633.951      -32.8 
1634.174      -34.2 
1634.397      -34.3 
1634.621      -38.2 
1634.844      -32.4 
1635.067      -28.0 
1635.291      -32.4 
1635.514      -38.6 
1635.737      -37.0 
1635.960      -37.9 
1636.184      -36.6 
1636.407      -38.0 
1636.630      -38.5 
1636.854      -41.4 
1637.077      -36.0 
1637.300      -41.8 
1637.524      -44.0 
1637.747      -42.8 
1637.970      -36.7 
1638.193      -31.5 
1638.417      -28.2 
1638.640      -33.6 
1638.863      -40.0 
1639.087      -44.1 
1639.310      -47.0 
1639.533      -46.4 
1639.757      -45.9 
1639.980      -46.3 
1640.203      -37.2 
1640.426      -30.7 
1640.650      -30.6 
1640.873      -32.6 
1641.096      -39.7 
1641.320      -45.5 
1641.543      -37.5 
1641.766      -34.0 
1641.989      -35.9 
1642.213      -42.0 
1642.436      -38.3 
1642.659      -41.4 
1642.883      -39.7 
1643.106      -32.3 
1643.329      -28.8 
1643.553      -31.8 
1643.776      -38.0 
1643.999      -39.8 
1644.222      -39.5 
1644.446      -40.9 
1644.669      -44.0 
1644.892      -33.5 
1645.116      -32.4 
1645.339      -33.9 
1645.562      -36.4 
1645.786      -40.0 
1646.009      -44.0 
1646.232      -44.2 
1646.455      -46.8 
1646.679      -39.4 
1646.902      -33.3 
1647.125      -40.4 
1647.349      -41.1 
1647.572      -46.5 
1647.795      -50.9 
1648.019      -43.8 
1648.242      -37.3 
1648.465      -34.7 
1648.688      -38.3 
1648.912      -32.1 
1649.135      -28.5 
1649.358      -29.1 
1649.582      -21.3 
1649.805      -18.2 
1650.028      -27.5 
1650.251      -33.8 
1650.475      -41.3 
1650.698      -32.7 
1650.921      -31.6 
1651.145      -33.8 
1651.368      -42.6 
1651.591      -40.9 
1651.815      -40.7 
1652.038      -50.7 
1652.261      -45.7 
1652.484      -38.6 
1652.708      -34.1 
1652.931      -24.8 
1653.154      -29.6 
1653.378      -40.5 
1653.601      -39.2 
1653.824      -36.2 
1654.048      -37.1 
1654.271      -38.0 
1654.494      -37.3 
1654.717      -36.7 
1654.941      -40.3 
1655.164      -33.7 
1655.387      -28.0 
1655.611      -28.6 
1655.834      -40.7 
1656.057      -38.3 
1656.281      -40.2 
1656.504      -40.1 
1656.727      -29.0 
1656.950      -28.9 
1657.174      -42.0 
1657.397      -40.4 
1657.620      -32.7 
1657.844      -25.8 
1658.067      -26.3 
1658.290      -34.4 
1658.513      -27.9 
1658.737      -27.7 
1658.960      -31.1 
1659.183      -40.7 
1659.407      -42.0 
1659.630      -44.5 
1659.853      -34.0 
1660.077      -37.1 
1660.300      -37.4 
1660.523      -34.9 
1660.746      -31.0 
1660.970      -34.0 
1661.193      -41.8 
1661.416      -42.0 
1661.640      -30.9 
1661.863      -28.7 
1662.086      -24.5 
1662.310      -20.3 
1662.533      -31.8 
1662.756      -37.4 
1662.979      -40.4 
1663.203      -40.6 
1663.426      -39.8 
1663.649      -32.7 
1663.873      -33.4 
1664.096      -32.8 
1664.319      -33.2 
1664.543      -25.0 
1664.766      -23.5 
1664.989      -33.5 
1665.212      -32.5 
1665.436      -44.2 
1665.659      -41.6 
1665.882      -41.5 
1666.106      -31.5 
1666.329      -25.7 
1666.552      -26.7 
1666.775      -28.7 
1666.999      -29.5 
1667.222      -25.3 
1667.445      -28.0 
1667.669      -27.0 
1667.892      -31.4 
1668.115      -31.7 
1668.339      -34.9 
1668.562      -32.3 
1668.785      -40.6 
1669.008      -37.5 
1669.232      -30.9 
1669.455      -36.4 
1669.678      -45.7 
1669.902      -37.1 
1670.125      -41.4 
1670.348      -35.7 
1670.572      -34.2 
1670.795      -30.0 
1671.018      -28.6 
1671.241      -33.8 
1671.465      -36.0 
1671.688      -40.0 
1671.911      -41.3 
1672.135      -38.9 
1672.358      -39.0 
1672.581      -40.7 
1672.805      -41.2 
1673.028      -37.1 
1673.251      -36.6 
1673.474      -30.7 
1673.698      -33.1 
1673.921      -29.0 
1674.144      -30.9 
1674.368      -29.4 
1674.591      -32.8 
1674.814      -35.1 
1675.038      -29.9 
1675.261      -30.2 
1675.484      -32.7 
1675.707      -29.4 
1675.931      -35.4 
1676.154      -35.0 
1676.377      -32.9 
1676.601      -31.9 
1676.824      -32.9 
1677.047      -31.4 
1677.270      -28.6 
1677.494      -34.9 
1677.717      -36.4 
1677.940      -38.2 
1678.164      -28.0 
1678.387      -19.3 
1678.610      -25.0 
1678.834      -24.9 
1679.057      -25.1 
1679.280      -28.4 
1679.503      -25.6 
1679.727      -26.6 
1679.950      -34.1 
1680.173      -27.4 
1680.397      -30.0 
1680.620      -29.9 
1680.843      -31.9 
1681.067      -35.6 
1681.290      -41.1 
1681.513      -37.6 
1681.736      -41.2 
1681.960      -43.2 
1682.183      -36.2 
1682.406      -30.3 
1682.630      -31.0 
1682.853      -30.8 
1683.076      -33.4 
1683.300      -39.0 
1683.523      -40.6 
1683.746      -31.2 
1683.969      -30.0 
1684.193      -30.6 
1684.416      -37.3 
1684.639      -35.6 
1684.863      -30.6 
1685.086      -32.6 
1685.309      -38.4 
1685.532      -32.9 
1685.756      -38.2 
1685.979      -34.8 
1686.202      -28.5 
1686.426      -33.5 
1686.649      -36.4 
1686.872      -46.0 
1687.096      -43.4 
1687.319      -39.7 
1687.542      -39.6 
1687.765      -36.2 
1687.989      -28.0 
1688.212      -23.4 
1688.435      -32.0 
1688.659      -34.6 
1688.882      -33.2 
1689.105      -28.7 
1689.329      -28.2 
1689.552      -27.7 
1689.775      -33.3 
1689.998      -32.7 
1690.222      -21.9 
1690.445      -29.5 
1690.668      -37.0 
1690.892      -26.8 
1691.115      -19.0 
1691.338      -12.7 
1691.562      -12.6 
1691.785      -18.2 
1692.008      -23.6 
1692.231      -27.4 
1692.455      -32.1 
1692.678      -35.2 
1692.901      -27.6 
1693.125      -21.4 
1693.348      -29.1 
1693.571      -35.1 
1693.794      -38.1 
1694.018      -40.3 
1694.241      -34.7 
1694.464      -31.3 
1694.688      -37.3 
1694.911      -35.9 
1695.134      -31.6 
1695.358      -28.3 
1695.581      -31.3 
1695.804      -40.5 
1696.027      -34.3 
1696.251      -32.2 
1696.474      -34.3 
1696.697      -31.1 
1696.921      -27.2 
1697.144      -26.8 
1697.367      -24.5 
1697.591      -24.6 
1697.814      -22.6 
1698.037      -28.6 
1698.260      -34.7 
1698.484      -35.8 
1698.707      -27.9 
1698.930      -28.3 
1699.154      -31.3 
1699.377      -35.3 
1699.600      -34.1 
1699.824      -26.1 
1700.047      -24.9 
1700.270      -27.0 
1700.493      -24.3 
1700.717      -31.7 
1700.940      -29.8 
1701.163      -32.2 
1701.387      -29.8 
1701.610      -21.0 
1701.833      -16.2 
1702.056      -20.9 
1702.280      -27.7 
1702.503      -34.3 
1702.726      -31.1 
1702.950      -36.5 
1703.173      -36.4 
1703.396      -28.7 
1703.620      -22.4 
1703.843      -23.4 
1704.066      -24.7 
1704.289      -23.6 
1704.513      -21.8 
1704.736      -20.9 
1704.959      -23.0 
1705.183      -32.4 
1705.406      -32.2 
1705.629      -31.6 
1705.853      -32.0 
1706.076      -29.9 
1706.299      -29.0 
1706.522      -28.1 
1706.746      -22.4 
1706.969      -21.1 
1707.192      -20.6 
1707.416      -24.1 
1707.639      -24.4 
1707.862      -33.0 
1708.086      -34.3 
1708.309      -27.6 
1708.532      -22.5 
1708.755      -17.9 
1708.979      -21.5 
1709.202      -22.9 
1709.425      -24.6 
1709.649      -31.7 
1709.872      -36.0 
1710.095      -33.3 
1710.318      -26.8 
1710.542      -30.5 
1710.765      -30.3 
1710.988      -25.5 
1711.212      -19.5 
1711.435      -22.4 
1711.658      -24.5 
1711.882      -26.1 
1712.105      -19.3 
1712.328      -10.6 
1712.551      -14.3 
1712.775      -15.9 
1712.998      -23.0 
1713.221      -35.8 
1713.445      -39.9 
1713.668      -28.1 
1713.891      -24.5 
1714.115      -25.8 
1714.338      -28.7 
1714.561      -28.2 
1714.784      -18.4 
1715.008      -27.9 
1715.231      -34.5 
1715.454      -32.7 
1715.678      -29.3 
1715.901      -28.9 
1716.124      -28.1 
1716.348      -30.5 
1716.571      -26.6 
1716.794      -28.7 
1717.017      -25.6 
1717.241      -24.2 
1717.464      -29.4 
1717.687      -35.7 
1717.911      -44.4 
1718.134      -40.3 
1718.357      -41.1 
1718.580      -50.8 
1718.804      -57.0 
1719.027      -56.5 
1719.250      -53.0 
1719.474      -50.0 
1719.697      -52.4 
1719.920      -49.1 
1720.144      -59.7 
1720.367      -60.1 
1720.590      -60.5 
1720.813      -67.5 
1721.037      -64.7 
1721.260      -64.4 
1721.483      -64.5 
1721.707      -69.8 
1721.930      -63.0 
1722.153      -59.8 
1722.377      -59.0 
1722.600      -57.8 
1722.823      -57.4 
1723.046      -55.1 
1723.270      -56.5 
1723.493      -58.4 
1723.716      -64.5 
1723.940      -58.1 
1724.163      -56.9 
1724.386      -57.8 
1724.610      -65.2 
1724.833      -64.8 
1725.056      -59.2 
1725.279      -56.3 
1725.503      -53.6 
1725.726      -60.9 
1725.949      -66.3 
1726.173      -63.4 
1726.396      -65.9 
1726.619      -66.6 
1726.842      -60.7 
1727.066      -59.4 
1727.289      -51.0 
1727.512      -43.8 
1727.736      -58.2 
1727.959      -58.1 
1728.182      -56.5 
1728.406      -54.2 
1728.629      -57.7 
1728.852      -49.4 
1729.075      -43.6 
1729.299      -50.2 
1729.522      -56.7 
1729.745      -56.7 
1729.969      -59.4 
1730.192      -41.6 
1730.415      -40.0 
1730.639      -46.5 
1730.862      -40.5 
1731.085      -41.6 
1731.308      -43.0 
1731.532      -45.0 
1731.755      -46.2 
1731.978      -51.7 
1732.202      -46.9 
1732.425      -46.1 
1732.648      -43.3 
1732.872      -43.1 
1733.095      -37.9 
1733.318      -46.7 
1733.541      -50.2 
1733.765      -47.5 
1733.988      -46.3 
1734.211      -46.7 
1734.435      -47.1 
1734.658      -42.5 
1734.881      -38.4 
1735.104      -50.0 
1735.328      -42.8 
1735.551      -36.5 
1735.774      -30.3 
1735.998      -33.8 
1736.221      -31.6 
1736.444      -34.9 
1736.668      -46.3 
1736.891      -52.6 
1737.114      -46.5 
1737.337      -30.6 
1737.561      -23.8 
1737.784      -29.8 
1738.007      -34.6 
1738.231      -34.4 
1738.454      -30.3 
1738.677      -26.0 
1738.901      -32.0 
1739.124      -32.7 
1739.347      -25.5 
1739.570      -27.3 
1739.794      -33.9 
1740.017      -31.5 
1740.240      -37.2 
1740.464      -40.4 
1740.687      -32.9 
1740.910      -39.0 
1741.134      -44.3 
1741.357      -46.3 
1741.580      -47.8 
1741.803      -42.3 
1742.027      -22.9 
1742.250      -22.6 
1742.473      -23.0 
1742.697      -26.4 
1742.920      -26.4 
1743.143      -22.3 
1743.366      -17.0 
1743.590      -21.8 
1743.813      -26.3 
1744.036      -38.0 
1744.260      -28.0 
1744.483      -30.4 
1744.706      -29.5 
1744.930      -25.4 
1745.153      -23.8 
1745.376      -25.2 
1745.599      -31.0 
1745.823      -32.7 
1746.046      -41.0 
1746.269      -42.1 
1746.493      -38.9 
1746.716      -33.5 
1746.939      -42.2 
1747.163      -45.4 
1747.386      -40.1 
1747.609      -31.9 
1747.832      -32.7 
1748.056      -34.6 
1748.279      -29.3 
1748.502      -28.8 
1748.726      -33.9 
1748.949      -28.1 
1749.172      -22.0 
1749.396      -20.4 
1749.619      -31.9 
1749.842      -34.9 
1750.065      -32.5 
1750.289      -32.0 
1750.512      -30.1 
1750.735      -30.0 
1750.959      -26.8 
1751.182      -34.6 
1751.405      -34.0 
1751.628      -30.5 
1751.852      -40.3 
1752.075      -39.7 
1752.298      -33.2 
1752.522      -32.6 
1752.745      -30.9 
1752.968      -29.6 
1753.192      -29.6 
1753.415      -36.7 
1753.638      -37.1 
1753.861      -24.2 
1754.085      -17.8 
1754.308      -23.0 
1754.531      -31.4 
1754.755      -28.8 
1754.978      -24.7 
1755.201      -27.6 
1755.425      -42.3 
1755.648      -39.0 
1755.871      -33.5 
1756.094      -29.5 
1756.318      -29.1 
1756.541      -34.6 
1756.764      -37.4 
1756.988      -34.0 
1757.211      -28.8 
1757.434      -29.7 
1757.658      -28.1 
1757.881      -21.7 
1758.104      -17.4 
1758.327      -24.0 
1758.551      -31.2 
1758.774      -28.8 
1758.997      -28.6 
1759.221      -30.5 
1759.444      -34.7 
1759.667      -40.4 
1759.890      -38.2 
1760.114      -28.9 
1760.337      -29.0 
1760.560      -31.2 
1760.784      -33.6 
1761.007      -35.4 
1761.230      -35.5 
1761.454      -33.7 
1761.677      -32.7 
1761.900      -39.0 
1762.123      -33.2 
1762.347      -37.0 
1762.570      -35.7 
1762.793      -25.4 
1763.017      -29.0 
1763.240      -40.6 
1763.463      -43.4 
1763.687      -35.8 
1763.910      -29.0 
1764.133      -29.4 
1764.356      -26.9 
1764.580      -22.7 
1764.803      -29.0 
1765.026      -33.7 
1765.250      -34.1 
1765.473      -32.7 
1765.696      -40.2 
1765.920      -41.6 
1766.143      -37.0 
1766.366      -28.5 
1766.589      -32.7 
1766.813      -26.8 
1767.036      -22.3 
1767.259      -21.1 
1767.483      -32.5 
1767.706      -36.6 
1767.929      -35.3 
1768.152      -29.1 
1768.376      -31.5 
1768.599      -36.0 
1768.822      -37.9 
1769.046      -33.6 
1769.269      -28.7 
1769.492      -31.3 
1769.716      -27.7 
1769.939      -24.7 
1770.162      -26.1 
1770.385      -33.6 
1770.609      -42.7 
1770.832      -40.5 
1771.055      -43.5 
1771.279      -45.5 
1771.502      -40.0 
1771.725      -35.8 
1771.949      -32.7 
1772.172      -27.7 
1772.395      -30.9 
1772.618      -25.5 
1772.842      -24.7 
1773.065      -18.8 
1773.288      -26.9 
1773.512      -26.4 
1773.735      -28.1 
1773.958      -27.9 
1774.182      -29.9 
1774.405      -22.6 
1774.628      -31.3 
1774.851      -39.7 
1775.075      -31.5 
1775.298      -35.7 
1775.521      -27.8 
1775.745      -24.6 
1775.968      -29.1 
1776.191      -32.0 
1776.415      -34.7 
1776.638      -32.7 
1776.861      -33.9 
1777.084      -37.9 
1777.308      -32.5 
1777.531      -30.2 
1777.754      -23.8 
1777.978      -23.1 
1778.201      -31.2 
1778.424      -32.6 
1778.647      -33.2 
1778.871      -29.0 
1779.094      -26.1 
1779.317      -37.4 
1779.541      -49.3 
1779.764      -38.0 
1779.987      -20.8 
1780.211      -23.7 
1780.434      -28.1 
1780.657      -37.7 
1780.880      -38.2 
1781.104      -34.0 
1781.327      -28.6 
1781.550      -26.1 
1781.774      -24.7 
1781.997      -28.2 
1782.220      -33.0 
1782.444      -28.1 
1782.667      -28.9 
1782.890      -27.7 
1783.113      -24.7 
1783.337      -22.4 
1783.560      -25.1 
1783.783      -23.4 
1784.007      -22.5 
1784.230      -19.6 
1784.453      -22.5 
1784.677      -27.3 
1784.900      -22.1 
1785.123      -18.6 
1785.346      -22.0 
1785.570      -31.5 
1785.793      -33.3 
1786.016      -37.5 
1786.240      -33.0 
1786.463      -31.8 
1786.686      -30.0 
1786.909      -25.1 
1787.133      -28.4 
1787.356      -30.0 
1787.579      -30.0 
1787.803      -25.0 
1788.026      -23.8 
1788.249      -22.5 
1788.473      -24.0 
1788.696      -24.8 
1788.919      -33.9 
1789.142      -22.7 
1789.366      -20.0 
1789.589      -24.9 
1789.812      -17.1 
1790.036      -15.8 
1790.259      -23.7 
1790.482      -27.6 
1790.706      -23.3 
1790.929      -31.2 
1791.152      -39.5 
1791.375      -36.5 
1791.599      -32.3 
1791.822      -28.2 
1792.045      -27.7 
1792.269      -40.4 
1792.492      -48.5 
1792.715      -43.4 
1792.939      -32.6 
1793.162      -29.6 
1793.385      -37.1 
1793.608      -35.4 
1793.832      -44.7 
1794.055      -46.4 
1794.278      -45.1 
1794.502      -45.9 
1794.725      -40.1 
1794.948      -50.0 
1795.171      -50.9 
1795.395      -40.8 
1795.618      -43.1 
1795.841      -47.8 
1796.065      -50.5 
1796.288      -51.8 
1796.511      -47.1 
1796.735      -45.7 
1796.958      -50.2 
1797.181      -53.7 
1797.404      -50.4 
1797.628      -45.8 
1797.851      -48.6 
1798.074      -45.1 
1798.298      -44.4 
1798.521      -45.0 
1798.744      -46.6 
1798.968      -42.0 
1799.191      -43.8 
1799.414      -44.5 
1799.637      -45.9 
1799.861      -46.9 
1800.084      -45.0 
time:        2472.1 


