Date : Thu Jun 03 17:32:30 2021

3000ev

AES params
 Ep [eV] : 3000.0
 It [uA] : 0.40
 Fmod [kHz] : 2.2
 Amod [V] : 1.20
 SEM [V] : 2018
Lock-in params
 Sensitivity [mV] : 0.030
 Phase [deg] : 74.0
 Time const [ms] : 0.3
 Prefilter [ms] : 100.0

   Start-End(eV)  Res(meV)  ms/pnt  Rate(eV/s) Aver
1     40-1000        223    300      0.744     1
Num of spectra : 1

  40.028     -380.8 
  40.251     -383.2 
  40.474     -381.3 
  40.698     -374.1 
  40.921     -362.6 
  41.144     -355.6 
  41.368     -345.8 
  41.591     -342.8 
  41.814     -338.5 
  42.037     -335.7 
  42.261     -333.0 
  42.484     -326.6 
  42.707     -317.5 
  42.931     -313.3 
  43.154     -312.7 
  43.377     -307.4 
  43.600     -303.4 
  43.824     -300.9 
  44.047     -294.9 
  44.270     -296.5 
  44.494     -295.3 
  44.717     -289.8 
  44.940     -285.6 
  45.164     -281.9 
  45.387     -285.5 
  45.610     -284.3 
  45.833     -286.0 
  46.057     -282.4 
  46.280     -278.3 
  46.503     -274.9 
  46.727     -276.7 
  46.950     -275.9 
  47.173     -271.0 
  47.397     -271.1 
  47.620     -270.1 
  47.843     -266.6 
  48.066     -265.6 
  48.290     -264.2 
  48.513     -263.2 
  48.736     -263.5 
  48.960     -260.8 
  49.183     -255.7 
  49.406     -256.5 
  49.630     -254.0 
  49.853     -254.4 
  50.076     -253.4 
  50.299     -250.2 
  50.523     -246.7 
  50.746     -246.7 
  50.969     -243.4 
  51.193     -243.2 
  51.416     -239.7 
  51.639     -235.7 
  51.862     -236.0 
  52.086     -229.9 
  52.309     -223.7 
  52.532     -216.4 
  52.756     -208.2 
  52.979     -200.2 
  53.202     -198.1 
  53.426     -196.9 
  53.649     -190.3 
  53.872     -190.3 
  54.095     -182.9 
  54.319     -179.7 
  54.542     -182.3 
  54.765     -179.0 
  54.989     -179.8 
  55.212     -177.4 
  55.435     -175.2 
  55.659     -172.6 
  55.882     -170.7 
  56.105     -170.1 
  56.328     -167.0 
  56.552     -166.6 
  56.775     -169.5 
  56.998     -167.4 
  57.222     -168.8 
  57.445     -166.2 
  57.668     -164.1 
  57.892     -165.8 
  58.115     -164.3 
  58.338     -166.8 
  58.561     -165.9 
  58.785     -167.1 
  59.008     -164.6 
  59.231     -168.9 
  59.455     -166.6 
  59.678     -163.4 
  59.901     -162.8 
  60.124     -167.1 
  60.348     -165.4 
  60.571     -168.7 
  60.794     -169.1 
  61.018     -170.8 
  61.241     -171.8 
  61.464     -165.2 
  61.688     -164.0 
  61.911     -164.0 
  62.134     -168.1 
  62.357     -168.9 
  62.581     -165.1 
  62.804     -162.1 
  63.027     -163.8 
  63.251     -159.4 
  63.474     -157.5 
  63.697     -155.4 
  63.921     -160.0 
  64.144     -163.5 
  64.367     -158.9 
  64.590     -155.2 
  64.814     -152.5 
  65.037     -152.9 
  65.260     -151.3 
  65.484     -151.6 
  65.707     -149.2 
  65.930     -152.4 
  66.154     -155.6 
  66.377     -157.8 
  66.600     -150.4 
  66.823     -144.6 
  67.047     -144.7 
  67.270     -144.2 
  67.493     -141.8 
  67.717     -142.6 
  67.940     -146.1 
  68.163     -145.4 
  68.386     -135.3 
  68.610     -134.2 
  68.833     -132.9 
  69.056     -127.6 
  69.280     -124.0 
  69.503     -119.3 
  69.726     -119.2 
  69.950     -116.2 
  70.173     -113.0 
  70.396     -105.4 
  70.619      -98.7 
  70.843      -93.6 
  71.066      -85.7 
  71.289      -80.7 
  71.513      -77.0 
  71.736      -70.6 
  71.959      -63.5 
  72.183      -57.8 
  72.406      -56.1 
  72.629      -53.3 
  72.852      -52.4 
  73.076      -45.4 
  73.299      -45.4 
  73.522      -44.2 
  73.746      -43.3 
  73.969      -43.9 
  74.192      -50.1 
  74.416      -55.8 
  74.639      -66.7 
  74.862      -71.3 
  75.085      -77.4 
  75.309      -84.3 
  75.532      -95.3 
  75.755     -105.4 
  75.979     -120.6 
  76.202     -128.3 
  76.425     -137.1 
  76.648     -147.6 
  76.872     -167.5 
  77.095     -176.9 
  77.318     -179.9 
  77.542     -186.9 
  77.765     -196.5 
  77.988     -205.7 
  78.212     -215.0 
  78.435     -222.1 
  78.658     -226.0 
  78.881     -223.9 
  79.105     -228.3 
  79.328     -230.3 
  79.551     -233.6 
  79.775     -229.9 
  79.998     -230.1 
  80.221     -224.1 
  80.445     -221.9 
  80.668     -222.5 
  80.891     -221.9 
  81.114     -218.6 
  81.338     -215.6 
  81.561     -208.7 
  81.784     -208.3 
  82.008     -205.4 
  82.231     -203.1 
  82.454     -204.8 
  82.678     -204.7 
  82.901     -198.9 
  83.124     -190.4 
  83.347     -186.6 
  83.571     -183.7 
  83.794     -180.0 
  84.017     -176.0 
  84.241     -168.5 
  84.464     -165.2 
  84.687     -165.8 
  84.910     -161.8 
  85.134     -159.2 
  85.357     -154.3 
  85.580     -156.1 
  85.804     -151.3 
  86.027     -147.8 
  86.250     -148.4 
  86.474     -143.1 
  86.697     -140.1 
  86.920     -139.2 
  87.143     -135.0 
  87.367     -136.7 
  87.590     -136.8 
  87.813     -135.3 
  88.037     -133.9 
  88.260     -135.8 
  88.483     -130.1 
  88.707     -124.8 
  88.930     -123.8 
  89.153     -125.0 
  89.376     -124.5 
  89.600     -121.0 
  89.823     -117.6 
  90.046     -117.5 
  90.270     -110.1 
  90.493     -114.0 
  90.716     -112.3 
  90.940     -109.6 
  91.163     -103.7 
  91.386     -100.4 
  91.609      -93.8 
  91.833      -89.2 
  92.056      -86.4 
  92.279      -81.1 
  92.503      -79.0 
  92.726      -74.4 
  92.949      -67.9 
  93.172      -65.7 
  93.396      -64.8 
  93.619      -61.6 
  93.842      -53.0 
  94.066      -48.4 
  94.289      -45.0 
  94.512      -41.4 
  94.736      -41.3 
  94.959      -34.7 
  95.182      -27.5 
  95.405      -28.3 
  95.629      -26.6 
  95.852      -22.9 
  96.075      -22.6 
  96.299      -18.1 
  96.522      -17.8 
  96.745      -23.3 
  96.969      -25.2 
  97.192      -19.7 
  97.415      -20.7 
  97.638      -24.4 
  97.862      -30.2 
  98.085      -32.8 
  98.308      -35.1 
  98.532      -43.6 
  98.755      -52.5 
  98.978      -56.3 
  99.202      -62.0 
  99.425      -69.0 
  99.648      -73.0 
  99.871      -77.5 
 100.095      -85.2 
 100.318      -92.6 
 100.541      -96.1 
 100.765     -105.1 
 100.988     -113.1 
 101.211     -121.4 
 101.434     -121.5 
 101.658     -127.0 
 101.881     -131.1 
 102.104     -131.7 
 102.328     -130.5 
 102.551     -129.7 
 102.774     -135.2 
 102.998     -135.3 
 103.221     -131.8 
 103.444     -128.0 
 103.667     -120.8 
 103.891     -118.6 
 104.114     -118.8 
 104.337     -119.0 
 104.561     -114.6 
 104.784     -113.3 
 105.007     -113.8 
 105.231     -113.5 
 105.454     -114.3 
 105.677     -112.0 
 105.900     -104.9 
 106.124     -102.8 
 106.347     -100.3 
 106.570     -101.5 
 106.794     -103.4 
 107.017     -102.7 
 107.240     -100.4 
 107.464      -99.5 
 107.687     -104.1 
 107.910     -105.1 
 108.133     -113.3 
 108.357     -115.2 
 108.580     -118.3 
 108.803     -123.4 
 109.027     -125.7 
 109.250     -133.6 
 109.473     -135.5 
 109.697     -135.8 
 109.920     -139.4 
 110.143     -142.9 
 110.366     -146.0 
 110.590     -148.1 
 110.813     -153.0 
 111.036     -156.9 
 111.260     -158.6 
 111.483     -158.7 
 111.706     -161.1 
 111.929     -165.7 
 112.153     -163.3 
 112.376     -163.8 
 112.599     -156.3 
 112.823     -151.0 
 113.046     -148.2 
 113.269     -146.5 
 113.493     -145.4 
 113.716     -139.6 
 113.939     -135.6 
 114.162     -130.9 
 114.386     -126.5 
 114.609     -114.9 
 114.832     -109.3 
 115.056     -103.6 
 115.279      -97.1 
 115.502      -96.2 
 115.726      -91.9 
 115.949      -81.4 
 116.172      -69.6 
 116.395      -65.2 
 116.619      -59.1 
 116.842      -55.1 
 117.065      -49.2 
 117.289      -48.1 
 117.512      -41.7 
 117.735      -36.0 
 117.959      -30.7 
 118.182      -31.1 
 118.405      -33.2 
 118.628      -33.2 
 118.852      -34.0 
 119.075      -33.2 
 119.298      -35.4 
 119.522      -35.8 
 119.745      -33.1 
 119.968      -36.7 
 120.191      -38.7 
 120.415      -39.1 
 120.638      -45.2 
 120.861      -44.3 
 121.085      -42.9 
 121.308      -43.8 
 121.531      -44.5 
 121.755      -49.6 
 121.978      -53.5 
 122.201      -54.0 
 122.424      -54.4 
 122.648      -57.3 
 122.871      -61.8 
 123.094      -63.8 
 123.318      -70.3 
 123.541      -76.8 
 123.764      -82.2 
 123.988      -86.6 
 124.211      -98.0 
 124.434     -105.2 
 124.657     -117.5 
 124.881     -128.3 
 125.104     -133.8 
 125.327     -141.0 
 125.551     -151.7 
 125.774     -158.6 
 125.997     -163.5 
 126.221     -163.4 
 126.444     -168.6 
 126.667     -171.0 
 126.890     -171.4 
 127.114     -171.5 
 127.337     -172.2 
 127.560     -172.5 
 127.784     -171.1 
 128.007     -169.9 
 128.230     -157.4 
 128.453     -151.3 
 128.677     -151.1 
 128.900     -145.7 
 129.123     -137.8 
 129.347     -133.5 
 129.570     -123.9 
 129.793     -119.6 
 130.017     -119.8 
 130.240     -120.7 
 130.463     -112.7 
 130.686     -106.4 
 130.910      -99.2 
 131.133     -103.9 
 131.356     -101.3 
 131.580      -95.0 
 131.803      -93.3 
 132.026      -93.1 
 132.250      -96.9 
 132.473      -95.1 
 132.696      -94.1 
 132.919      -88.0 
 133.143      -89.3 
 133.366      -93.8 
 133.589      -97.7 
 133.813      -90.6 
 134.036      -92.1 
 134.259      -95.8 
 134.483      -94.7 
 134.706      -91.1 
 134.929      -86.7 
 135.152      -85.3 
 135.376      -87.4 
 135.599      -88.4 
 135.822      -83.2 
 136.046      -83.8 
 136.269      -86.0 
 136.492      -86.1 
 136.715      -83.8 
 136.939      -82.4 
 137.162      -79.9 
 137.385      -76.9 
 137.609      -72.0 
 137.832      -69.1 
 138.055      -74.2 
 138.279      -70.2 
 138.502      -70.3 
 138.725      -73.0 
 138.948      -64.2 
 139.172      -63.6 
 139.395      -68.2 
 139.618      -72.4 
 139.842      -64.9 
 140.065      -64.7 
 140.288      -68.7 
 140.512      -63.3 
 140.735      -67.8 
 140.958      -71.6 
 141.181      -72.2 
 141.405      -69.7 
 141.628      -71.1 
 141.851      -71.7 
 142.075      -73.8 
 142.298      -73.3 
 142.521      -68.5 
 142.745      -72.0 
 142.968      -75.1 
 143.191      -72.8 
 143.414      -69.1 
 143.638      -68.0 
 143.861      -71.9 
 144.084      -74.7 
 144.308      -76.0 
 144.531      -76.0 
 144.754      -79.1 
 144.977      -81.1 
 145.201      -76.4 
 145.424      -81.5 
 145.647      -89.9 
 145.871      -95.3 
 146.094      -90.6 
 146.317      -88.5 
 146.541      -85.4 
 146.764      -84.6 
 146.987      -89.7 
 147.210      -91.1 
 147.434      -93.9 
 147.657      -92.6 
 147.880      -91.0 
 148.104      -90.5 
 148.327      -89.9 
 148.550      -90.9 
 148.774      -88.8 
 148.997      -84.6 
 149.220      -81.5 
 149.443      -81.8 
 149.667      -76.9 
 149.890      -77.1 
 150.113      -80.3 
 150.337      -80.0 
 150.560      -76.6 
 150.783      -73.3 
 151.007      -71.1 
 151.230      -70.2 
 151.453      -70.7 
 151.676      -69.0 
 151.900      -70.0 
 152.123      -69.2 
 152.346      -70.6 
 152.570      -73.1 
 152.793      -71.7 
 153.016      -68.0 
 153.239      -72.4 
 153.463      -73.9 
 153.686      -73.1 
 153.909      -73.0 
 154.133      -69.6 
 154.356      -69.5 
 154.579      -68.2 
 154.803      -72.9 
 155.026      -71.9 
 155.249      -67.0 
 155.472      -67.1 
 155.696      -66.4 
 155.919      -73.1 
 156.142      -78.4 
 156.366      -74.0 
 156.589      -74.5 
 156.812      -76.9 
 157.036      -78.2 
 157.259      -76.8 
 157.482      -72.3 
 157.705      -76.8 
 157.929      -81.4 
 158.152      -81.6 
 158.375      -80.5 
 158.599      -80.4 
 158.822      -81.8 
 159.045      -78.7 
 159.269      -82.1 
 159.492      -83.3 
 159.715      -77.8 
 159.938      -81.0 
 160.162      -80.6 
 160.385      -79.1 
 160.608      -78.7 
 160.832      -83.1 
 161.055      -87.1 
 161.278      -87.8 
 161.501      -90.2 
 161.725      -90.8 
 161.948      -85.8 
 162.171      -85.5 
 162.395      -83.1 
 162.618      -84.7 
 162.841      -82.1 
 163.065      -81.3 
 163.288      -80.8 
 163.511      -83.5 
 163.734      -82.0 
 163.958      -79.8 
 164.181      -79.4 
 164.404      -85.0 
 164.628      -84.4 
 164.851      -81.4 
 165.074      -76.0 
 165.298      -79.1 
 165.521      -78.4 
 165.744      -80.0 
 165.967      -81.2 
 166.191      -80.4 
 166.414      -80.8 
 166.637      -79.5 
 166.861      -75.3 
 167.084      -77.3 
 167.307      -82.9 
 167.531      -81.9 
 167.754      -80.3 
 167.977      -76.9 
 168.200      -77.5 
 168.424      -76.5 
 168.647      -76.1 
 168.870      -80.7 
 169.094      -84.2 
 169.317      -87.6 
 169.540      -85.0 
 169.763      -88.9 
 169.987      -88.7 
 170.210      -87.2 
 170.433      -88.5 
 170.657      -90.7 
 170.880      -91.2 
 171.103      -91.1 
 171.327      -93.2 
 171.550      -92.5 
 171.773      -93.6 
 171.996      -97.9 
 172.220      -93.3 
 172.443      -90.9 
 172.666      -85.5 
 172.890      -89.6 
 173.113      -96.8 
 173.336      -97.6 
 173.560      -96.2 
 173.783      -94.9 
 174.006      -94.4 
 174.229     -100.1 
 174.453     -101.8 
 174.676     -100.2 
 174.899      -96.0 
 175.123      -92.8 
 175.346      -93.2 
 175.569      -95.5 
 175.793      -94.5 
 176.016      -96.5 
 176.239      -96.7 
 176.462      -92.5 
 176.686      -96.4 
 176.909     -100.8 
 177.132      -95.5 
 177.356      -97.8 
 177.579      -96.3 
 177.802      -93.5 
 178.025      -86.8 
 178.249      -80.4 
 178.472      -85.5 
 178.695      -89.5 
 178.919      -85.4 
 179.142      -84.6 
 179.365      -83.4 
 179.589      -84.7 
 179.812      -86.3 
 180.035      -87.8 
 180.258      -83.2 
 180.482      -84.4 
 180.705      -86.7 
 180.928      -86.8 
 181.152      -87.3 
 181.375      -85.2 
 181.598      -81.2 
 181.822      -83.6 
 182.045      -81.1 
 182.268      -80.1 
 182.491      -87.3 
 182.715      -87.6 
 182.938      -93.4 
 183.161      -89.3 
 183.385      -83.9 
 183.608      -84.9 
 183.831      -83.9 
 184.055      -87.3 
 184.278      -87.9 
 184.501      -86.6 
 184.724      -85.8 
 184.948      -85.9 
 185.171      -84.3 
 185.394      -88.5 
 185.618      -87.2 
 185.841      -89.9 
 186.064      -88.9 
 186.287      -81.8 
 186.511      -81.3 
 186.734      -78.2 
 186.957      -77.3 
 187.181      -76.5 
 187.404      -76.1 
 187.627      -76.9 
 187.851      -78.0 
 188.074      -79.9 
 188.297      -79.4 
 188.520      -79.8 
 188.744      -79.6 
 188.967      -76.4 
 189.190      -74.1 
 189.414      -74.9 
 189.637      -78.1 
 189.860      -74.3 
 190.084      -70.0 
 190.307      -68.8 
 190.530      -74.7 
 190.753      -77.7 
 190.977      -79.7 
 191.200      -77.2 
 191.423      -72.3 
 191.647      -77.0 
 191.870      -71.4 
 192.093      -74.2 
 192.317      -72.7 
 192.540      -74.5 
 192.763      -69.0 
 192.986      -68.6 
 193.210      -71.4 
 193.433      -69.0 
 193.656      -69.3 
 193.880      -73.6 
 194.103      -73.6 
 194.326      -72.0 
 194.549      -68.3 
 194.773      -66.2 
 194.996      -66.0 
 195.219      -66.4 
 195.443      -68.7 
 195.666      -66.5 
 195.889      -66.8 
 196.113      -71.1 
 196.336      -74.0 
 196.559      -72.7 
 196.782      -69.7 
 197.006      -66.4 
 197.229      -69.9 
 197.452      -70.7 
 197.676      -65.1 
 197.899      -64.9 
 198.122      -67.3 
 198.346      -70.5 
 198.569      -67.2 
 198.792      -64.9 
 199.015      -69.6 
 199.239      -64.6 
 199.462      -69.0 
 199.685      -66.3 
 199.909      -67.4 
 200.132      -70.2 
 200.355      -70.3 
 200.579      -65.4 
 200.802      -69.8 
 201.025      -71.4 
 201.248      -71.4 
 201.472      -72.2 
 201.695      -73.2 
 201.918      -69.7 
 202.142      -68.8 
 202.365      -69.7 
 202.588      -70.3 
 202.812      -64.1 
 203.035      -65.7 
 203.258      -71.5 
 203.481      -72.5 
 203.705      -71.1 
 203.928      -74.5 
 204.151      -71.6 
 204.375      -69.6 
 204.598      -67.9 
 204.821      -63.2 
 205.044      -65.6 
 205.268      -67.8 
 205.491      -66.6 
 205.714      -67.5 
 205.938      -70.8 
 206.161      -70.7 
 206.384      -66.3 
 206.608      -65.0 
 206.831      -68.2 
 207.054      -71.6 
 207.277      -68.6 
 207.501      -69.7 
 207.724      -69.6 
 207.947      -69.0 
 208.171      -70.6 
 208.394      -73.8 
 208.617      -70.0 
 208.841      -67.1 
 209.064      -68.3 
 209.287      -66.1 
 209.510      -68.4 
 209.734      -69.7 
 209.957      -69.2 
 210.180      -67.1 
 210.404      -68.8 
 210.627      -68.7 
 210.850      -65.6 
 211.074      -64.5 
 211.297      -64.5 
 211.520      -64.5 
 211.743      -67.3 
 211.967      -70.3 
 212.190      -70.4 
 212.413      -70.5 
 212.637      -72.3 
 212.860      -69.8 
 213.083      -70.2 
 213.306      -69.7 
 213.530      -69.2 
 213.753      -69.4 
 213.976      -67.0 
 214.200      -69.8 
 214.423      -71.2 
 214.646      -68.2 
 214.870      -67.0 
 215.093      -67.0 
 215.316      -66.1 
 215.539      -64.3 
 215.763      -67.2 
 215.986      -62.4 
 216.209      -61.5 
 216.433      -65.8 
 216.656      -70.3 
 216.879      -71.1 
 217.103      -70.0 
 217.326      -67.6 
 217.549      -61.8 
 217.772      -62.3 
 217.996      -67.5 
 218.219      -68.1 
 218.442      -70.3 
 218.666      -68.2 
 218.889      -73.3 
 219.112      -70.4 
 219.336      -67.8 
 219.559      -69.5 
 219.782      -70.8 
 220.005      -65.9 
 220.229      -66.2 
 220.452      -69.4 
 220.675      -73.6 
 220.899      -68.7 
 221.122      -68.7 
 221.345      -69.7 
 221.568      -66.8 
 221.792      -66.1 
 222.015      -61.1 
 222.238      -62.8 
 222.462      -64.0 
 222.685      -63.2 
 222.908      -63.1 
 223.132      -64.5 
 223.355      -63.4 
 223.578      -64.1 
 223.801      -64.9 
 224.025      -64.4 
 224.248      -62.7 
 224.471      -65.8 
 224.695      -64.6 
 224.918      -67.3 
 225.141      -63.4 
 225.365      -62.5 
 225.588      -64.7 
 225.811      -62.8 
 226.034      -63.4 
 226.258      -64.0 
 226.481      -69.2 
 226.704      -70.3 
 226.928      -70.4 
 227.151      -71.1 
 227.374      -64.5 
 227.598      -64.3 
 227.821      -68.1 
 228.044      -70.3 
 228.267      -73.5 
 228.491      -70.0 
 228.714      -67.9 
 228.937      -69.2 
 229.161      -67.6 
 229.384      -68.3 
 229.607      -69.6 
 229.830      -67.9 
 230.054      -63.8 
 230.277      -67.5 
 230.500      -64.2 
 230.724      -67.0 
 230.947      -65.5 
 231.170      -62.1 
 231.394      -62.0 
 231.617      -63.8 
 231.840      -62.9 
 232.063      -68.4 
 232.287      -68.2 
 232.510      -72.0 
 232.733      -72.2 
 232.957      -69.0 
 233.180      -63.1 
 233.403      -64.2 
 233.627      -65.0 
 233.850      -60.8 
 234.073      -60.5 
 234.296      -63.2 
 234.520      -64.8 
 234.743      -65.4 
 234.966      -61.8 
 235.190      -64.2 
 235.413      -63.9 
 235.636      -65.2 
 235.860      -62.9 
 236.083      -62.4 
 236.306      -57.8 
 236.529      -58.6 
 236.753      -60.1 
 236.976      -62.0 
 237.199      -61.3 
 237.423      -63.6 
 237.646      -65.8 
 237.869      -66.9 
 238.092      -63.4 
 238.316      -59.4 
 238.539      -56.8 
 238.762      -60.8 
 238.986      -58.5 
 239.209      -55.3 
 239.432      -54.9 
 239.656      -51.1 
 239.879      -54.1 
 240.102      -59.1 
 240.325      -60.0 
 240.549      -62.3 
 240.772      -65.0 
 240.995      -60.4 
 241.219      -54.7 
 241.442      -56.3 
 241.665      -54.4 
 241.889      -57.4 
 242.112      -58.9 
 242.335      -58.4 
 242.558      -63.2 
 242.782      -66.7 
 243.005      -66.3 
 243.228      -68.1 
 243.452      -61.7 
 243.675      -59.6 
 243.898      -62.4 
 244.122      -67.8 
 244.345      -67.3 
 244.568      -65.8 
 244.791      -66.6 
 245.015      -72.6 
 245.238      -75.4 
 245.461      -71.7 
 245.685      -69.2 
 245.908      -69.8 
 246.131      -71.5 
 246.354      -72.8 
 246.578      -72.6 
 246.801      -63.8 
 247.024      -61.1 
 247.248      -64.8 
 247.471      -64.2 
 247.694      -60.5 
 247.918      -66.4 
 248.141      -65.9 
 248.364      -62.5 
 248.587      -61.1 
 248.811      -63.2 
 249.034      -63.0 
 249.257      -60.4 
 249.481      -58.6 
 249.704      -63.6 
 249.927      -59.3 
 250.151      -56.1 
 250.374      -56.6 
 250.597      -54.3 
 250.820      -55.3 
 251.044      -55.0 
 251.267      -60.4 
 251.490      -60.8 
 251.714      -56.7 
 251.937      -55.5 
 252.160      -55.9 
 252.384      -56.7 
 252.607      -54.1 
 252.830      -55.1 
 253.053      -59.9 
 253.277      -58.6 
 253.500      -61.4 
 253.723      -58.3 
 253.947      -57.9 
 254.170      -55.6 
 254.393      -56.2 
 254.616      -59.8 
 254.840      -56.7 
 255.063      -58.3 
 255.286      -60.5 
 255.510      -60.0 
 255.733      -57.8 
 255.956      -60.3 
 256.180      -61.1 
 256.403      -58.0 
 256.626      -55.5 
 256.849      -60.6 
 257.073      -67.8 
 257.296      -66.2 
 257.519      -66.1 
 257.743      -65.9 
 257.966      -63.0 
 258.189      -63.6 
 258.413      -63.4 
 258.636      -64.2 
 258.859      -61.6 
 259.082      -64.4 
 259.306      -66.0 
 259.529      -68.1 
 259.752      -61.8 
 259.976      -56.9 
 260.199      -60.0 
 260.422      -62.9 
 260.646      -64.7 
 260.869      -65.2 
 261.092      -60.9 
 261.315      -60.4 
 261.539      -65.7 
 261.762      -66.1 
 261.985      -69.4 
 262.209      -66.8 
 262.432      -69.5 
 262.655      -61.6 
 262.878      -60.2 
 263.102      -62.8 
 263.325      -66.8 
 263.548      -65.6 
 263.772      -70.0 
 263.995      -73.8 
 264.218      -69.8 
 264.442      -71.3 
 264.665      -77.3 
 264.888      -75.7 
 265.111      -78.3 
 265.335      -71.7 
 265.558      -74.7 
 265.781      -77.2 
 266.005      -72.3 
 266.228      -77.2 
 266.451      -84.6 
 266.675      -86.5 
 266.898      -87.6 
 267.121      -86.5 
 267.344      -82.9 
 267.568      -84.8 
 267.791      -89.6 
 268.014      -95.0 
 268.238      -94.1 
 268.461      -95.7 
 268.684      -91.6 
 268.908      -94.5 
 269.131     -101.7 
 269.354      -99.0 
 269.577      -98.2 
 269.801     -102.4 
 270.024     -105.6 
 270.247     -109.3 
 270.471     -112.5 
 270.694     -114.7 
 270.917     -112.1 
 271.140     -114.3 
 271.364     -119.7 
 271.587     -118.0 
 271.810     -119.7 
 272.034     -118.3 
 272.257     -118.1 
 272.480     -124.1 
 272.704     -118.7 
 272.927     -119.5 
 273.150     -120.5 
 273.373     -125.3 
 273.597     -126.8 
 273.820     -125.1 
 274.043     -123.5 
 274.267     -126.0 
 274.490     -124.9 
 274.713     -126.3 
 274.937     -124.2 
 275.160     -124.4 
 275.383     -129.2 
 275.606     -130.2 
 275.830     -122.6 
 276.053     -123.2 
 276.276     -119.8 
 276.500     -121.5 
 276.723     -119.6 
 276.946     -120.0 
 277.170     -120.3 
 277.393     -118.0 
 277.616     -121.2 
 277.839     -116.5 
 278.063     -115.7 
 278.286     -113.4 
 278.509     -113.0 
 278.733     -112.5 
 278.956     -111.7 
 279.179     -115.8 
 279.402     -116.3 
 279.626     -115.4 
 279.849     -111.4 
 280.072     -107.0 
 280.296     -104.8 
 280.519     -107.0 
 280.742     -104.8 
 280.966     -105.1 
 281.189     -108.0 
 281.412     -102.9 
 281.635     -100.8 
 281.859      -95.8 
 282.082      -92.0 
 282.305      -93.0 
 282.529      -91.0 
 282.752      -87.3 
 282.975      -88.1 
 283.199      -85.6 
 283.422      -88.0 
 283.645      -87.3 
 283.868      -87.6 
 284.092      -87.6 
 284.315      -89.3 
 284.538      -85.7 
 284.762      -81.7 
 284.985      -77.6 
 285.208      -79.3 
 285.432      -77.7 
 285.655      -76.3 
 285.878      -79.9 
 286.101      -82.4 
 286.325      -81.3 
 286.548      -82.2 
 286.771      -83.9 
 286.995      -78.6 
 287.218      -79.5 
 287.441      -80.6 
 287.664      -78.7 
 287.888      -78.7 
 288.111      -76.0 
 288.334      -78.5 
 288.558      -73.4 
 288.781      -69.4 
 289.004      -66.7 
 289.228      -67.7 
 289.451      -69.9 
 289.674      -70.9 
 289.897      -77.4 
 290.121      -73.9 
 290.344      -72.7 
 290.567      -81.5 
 290.791      -77.8 
 291.014      -74.2 
 291.237      -70.4 
 291.461      -75.0 
 291.684      -74.7 
 291.907      -76.8 
 292.130      -78.6 
 292.354      -76.0 
 292.577      -74.2 
 292.800      -74.1 
 293.024      -78.8 
 293.247      -76.2 
 293.470      -72.1 
 293.694      -71.1 
 293.917      -69.9 
 294.140      -72.2 
 294.363      -72.9 
 294.587      -69.9 
 294.810      -71.8 
 295.033      -74.4 
 295.257      -76.4 
 295.480      -73.6 
 295.703      -71.6 
 295.926      -70.7 
 296.150      -70.3 
 296.373      -77.7 
 296.596      -74.4 
 296.820      -73.0 
 297.043      -72.9 
 297.266      -74.9 
 297.490      -72.6 
 297.713      -69.5 
 297.936      -69.7 
 298.159      -71.5 
 298.383      -71.2 
 298.606      -69.7 
 298.829      -67.9 
 299.053      -70.4 
 299.276      -72.2 
 299.499      -77.0 
 299.723      -78.2 
 299.946      -79.3 
 300.169      -77.6 
 300.392      -70.4 
 300.616      -71.8 
 300.839      -74.4 
 301.062      -75.5 
 301.286      -76.4 
 301.509      -76.1 
 301.732      -77.9 
 301.956      -76.6 
 302.179      -71.5 
 302.402      -71.3 
 302.625      -69.4 
 302.849      -72.4 
 303.072      -70.1 
 303.295      -72.1 
 303.519      -72.6 
 303.742      -75.6 
 303.965      -75.3 
 304.189      -77.6 
 304.412      -74.8 
 304.635      -76.4 
 304.858      -79.3 
 305.082      -71.9 
 305.305      -72.2 
 305.528      -72.7 
 305.752      -76.9 
 305.975      -74.4 
 306.198      -75.0 
 306.421      -74.0 
 306.645      -73.6 
 306.868      -72.2 
 307.091      -70.6 
 307.315      -77.0 
 307.538      -75.0 
 307.761      -76.1 
 307.985      -76.1 
 308.208      -77.2 
 308.431      -78.3 
 308.654      -78.8 
 308.878      -78.9 
 309.101      -79.5 
 309.324      -78.2 
 309.548      -72.7 
 309.771      -77.3 
 309.994      -72.2 
 310.218      -74.2 
 310.441      -75.8 
 310.664      -74.5 
 310.887      -75.4 
 311.111      -72.3 
 311.334      -73.9 
 311.557      -77.1 
 311.781      -74.1 
 312.004      -71.8 
 312.227      -72.2 
 312.451      -73.7 
 312.674      -75.1 
 312.897      -73.7 
 313.120      -74.7 
 313.344      -76.9 
 313.567      -74.7 
 313.790      -74.4 
 314.014      -64.8 
 314.237      -68.2 
 314.460      -67.7 
 314.683      -70.7 
 314.907      -73.1 
 315.130      -72.6 
 315.353      -73.5 
 315.577      -71.6 
 315.800      -70.0 
 316.023      -70.4 
 316.247      -73.0 
 316.470      -78.0 
 316.693      -77.5 
 316.916      -71.4 
 317.140      -73.1 
 317.363      -75.6 
 317.586      -77.1 
 317.810      -79.9 
 318.033      -75.9 
 318.256      -75.7 
 318.480      -75.1 
 318.703      -78.8 
 318.926      -72.0 
 319.149      -75.5 
 319.373      -79.3 
 319.596      -72.7 
 319.819      -70.6 
 320.043      -76.9 
 320.266      -79.8 
 320.489      -78.6 
 320.713      -76.0 
 320.936      -78.4 
 321.159      -75.7 
 321.382      -76.3 
 321.606      -75.9 
 321.829      -75.9 
 322.052      -75.2 
 322.276      -75.3 
 322.499      -76.1 
 322.722      -77.3 
 322.945      -76.4 
 323.169      -74.1 
 323.392      -75.4 
 323.615      -71.0 
 323.839      -68.5 
 324.062      -73.5 
 324.285      -70.0 
 324.509      -71.4 
 324.732      -70.1 
 324.955      -71.7 
 325.178      -74.4 
 325.402      -74.5 
 325.625      -70.0 
 325.848      -70.2 
 326.072      -76.8 
 326.295      -76.2 
 326.518      -74.8 
 326.742      -77.9 
 326.965      -80.2 
 327.188      -73.5 
 327.411      -70.2 
 327.635      -70.1 
 327.858      -70.4 
 328.081      -72.0 
 328.305      -71.8 
 328.528      -71.9 
 328.751      -74.1 
 328.975      -70.6 
 329.198      -68.2 
 329.421      -70.3 
 329.644      -71.3 
 329.868      -78.0 
 330.091      -77.7 
 330.314      -75.9 
 330.538      -74.3 
 330.761      -70.7 
 330.984      -68.6 
 331.207      -74.4 
 331.431      -73.5 
 331.654      -71.6 
 331.877      -70.4 
 332.101      -67.3 
 332.324      -66.1 
 332.547      -68.1 
 332.771      -69.2 
 332.994      -72.6 
 333.217      -73.4 
 333.440      -76.3 
 333.664      -74.1 
 333.887      -71.0 
 334.110      -68.8 
 334.334      -69.9 
 334.557      -77.6 
 334.780      -77.5 
 335.004      -75.5 
 335.227      -73.2 
 335.450      -72.4 
 335.673      -74.9 
 335.897      -75.3 
 336.120      -75.0 
 336.343      -72.1 
 336.567      -71.0 
 336.790      -71.1 
 337.013      -75.3 
 337.237      -76.3 
 337.460      -75.1 
 337.683      -76.6 
 337.906      -74.4 
 338.130      -71.8 
 338.353      -72.2 
 338.576      -70.7 
 338.800      -68.3 
 339.023      -70.6 
 339.246      -79.3 
 339.469      -76.6 
 339.693      -76.5 
 339.916      -74.9 
 340.139      -71.0 
 340.363      -68.6 
 340.586      -70.8 
 340.809      -71.1 
 341.033      -73.5 
 341.256      -69.1 
 341.479      -70.1 
 341.702      -68.6 
 341.926      -68.0 
 342.149      -67.5 
 342.372      -67.1 
 342.596      -70.4 
 342.819      -71.9 
 343.042      -70.6 
 343.266      -67.2 
 343.489      -67.6 
 343.712      -72.6 
 343.935      -74.1 
 344.159      -74.7 
 344.382      -74.1 
 344.605      -72.3 
 344.829      -70.8 
 345.052      -71.4 
 345.275      -72.8 
 345.499      -74.0 
 345.722      -71.4 
 345.945      -68.8 
 346.168      -74.3 
 346.392      -75.1 
 346.615      -71.7 
 346.838      -71.7 
 347.062      -73.1 
 347.285      -70.3 
 347.508      -64.4 
 347.731      -67.1 
 347.955      -69.9 
 348.178      -74.2 
 348.401      -75.1 
 348.625      -72.6 
 348.848      -74.0 
 349.071      -73.4 
 349.295      -72.8 
 349.518      -73.8 
 349.741      -76.1 
 349.964      -73.5 
 350.188      -69.1 
 350.411      -70.0 
 350.634      -74.4 
 350.858      -76.8 
 351.081      -69.0 
 351.304      -68.8 
 351.528      -70.9 
 351.751      -73.0 
 351.974      -69.7 
 352.197      -66.6 
 352.421      -68.2 
 352.644      -72.4 
 352.867      -72.3 
 353.091      -71.0 
 353.314      -69.0 
 353.537      -65.6 
 353.761      -64.6 
 353.984      -70.5 
 354.207      -69.8 
 354.430      -70.7 
 354.654      -73.2 
 354.877      -74.8 
 355.100      -75.2 
 355.324      -71.2 
 355.547      -71.7 
 355.770      -75.2 
 355.993      -76.8 
 356.217      -78.4 
 356.440      -73.4 
 356.663      -68.1 
 356.887      -67.9 
 357.110      -68.6 
 357.333      -69.3 
 357.557      -71.3 
 357.780      -72.0 
 358.003      -72.1 
 358.226      -72.2 
 358.450      -77.6 
 358.673      -76.1 
 358.896      -71.6 
 359.120      -72.9 
 359.343      -69.2 
 359.566      -75.5 
 359.790      -74.6 
 360.013      -75.9 
 360.236      -71.8 
 360.459      -74.2 
 360.683      -74.1 
 360.906      -76.3 
 361.129      -74.2 
 361.353      -75.0 
 361.576      -71.4 
 361.799      -69.5 
 362.023      -66.0 
 362.246      -67.4 
 362.469      -66.5 
 362.692      -67.1 
 362.916      -71.5 
 363.139      -72.1 
 363.362      -80.7 
 363.586      -81.3 
 363.809      -80.0 
 364.032      -73.9 
 364.255      -72.7 
 364.479      -69.8 
 364.702      -62.1 
 364.925      -63.4 
 365.149      -69.3 
 365.372      -67.7 
 365.595      -68.6 
 365.819      -67.5 
 366.042      -72.5 
 366.265      -77.9 
 366.488      -78.7 
 366.712      -75.8 
 366.935      -71.1 
 367.158      -69.4 
 367.382      -69.0 
 367.605      -66.9 
 367.828      -69.2 
 368.052      -67.5 
 368.275      -67.9 
 368.498      -68.3 
 368.721      -66.5 
 368.945      -72.2 
 369.168      -73.2 
 369.391      -72.4 
 369.615      -70.5 
 369.838      -72.0 
 370.061      -71.5 
 370.285      -72.3 
 370.508      -65.9 
 370.731      -67.3 
 370.954      -63.2 
 371.178      -64.3 
 371.401      -69.1 
 371.624      -69.6 
 371.848      -66.4 
 372.071      -68.5 
 372.294      -69.6 
 372.517      -74.7 
 372.741      -76.9 
 372.964      -71.5 
 373.187      -69.3 
 373.411      -70.2 
 373.634      -67.9 
 373.857      -69.5 
 374.081      -67.3 
 374.304      -71.7 
 374.527      -73.3 
 374.750      -75.2 
 374.974      -71.3 
 375.197      -70.6 
 375.420      -71.1 
 375.644      -72.4 
 375.867      -72.1 
 376.090      -72.1 
 376.314      -70.5 
 376.537      -71.3 
 376.760      -70.4 
 376.983      -67.7 
 377.207      -67.2 
 377.430      -67.6 
 377.653      -64.5 
 377.877      -71.3 
 378.100      -69.5 
 378.323      -70.3 
 378.547      -73.9 
 378.770      -75.7 
 378.993      -73.1 
 379.216      -67.3 
 379.440      -68.9 
 379.663      -73.6 
 379.886      -68.2 
 380.110      -67.8 
 380.333      -67.8 
 380.556      -66.1 
 380.779      -69.8 
 381.003      -67.3 
 381.226      -63.5 
 381.449      -67.3 
 381.673      -67.0 
 381.896      -65.1 
 382.119      -65.9 
 382.343      -66.3 
 382.566      -66.6 
 382.789      -67.9 
 383.012      -68.4 
 383.236      -67.1 
 383.459      -68.7 
 383.682      -67.1 
 383.906      -68.9 
 384.129      -65.7 
 384.352      -67.2 
 384.576      -74.0 
 384.799      -76.6 
 385.022      -73.8 
 385.245      -70.1 
 385.469      -72.1 
 385.692      -75.4 
 385.915      -81.2 
 386.139      -75.0 
 386.362      -74.8 
 386.585      -80.3 
 386.809      -79.8 
 387.032      -75.8 
 387.255      -74.4 
 387.478      -71.0 
 387.702      -69.9 
 387.925      -75.1 
 388.148      -73.3 
 388.372      -73.3 
 388.595      -71.5 
 388.818      -75.4 
 389.041      -73.3 
 389.265      -70.0 
 389.488      -65.6 
 389.711      -69.7 
 389.935      -69.2 
 390.158      -65.8 
 390.381      -67.2 
 390.605      -69.3 
 390.828      -71.8 
 391.051      -72.6 
 391.274      -74.5 
 391.498      -73.0 
 391.721      -68.4 
 391.944      -68.7 
 392.168      -70.5 
 392.391      -73.3 
 392.614      -73.0 
 392.838      -71.0 
 393.061      -65.5 
 393.284      -68.1 
 393.507      -69.8 
 393.731      -69.2 
 393.954      -77.3 
 394.177      -78.7 
 394.401      -68.1 
 394.624      -66.3 
 394.847      -66.7 
 395.071      -67.8 
 395.294      -67.0 
 395.517      -70.9 
 395.740      -69.8 
 395.964      -68.1 
 396.187      -69.8 
 396.410      -73.7 
 396.634      -76.0 
 396.857      -70.3 
 397.080      -71.6 
 397.303      -73.1 
 397.527      -70.4 
 397.750      -71.1 
 397.973      -70.8 
 398.197      -70.9 
 398.420      -63.7 
 398.643      -65.1 
 398.867      -69.3 
 399.090      -72.5 
 399.313      -70.0 
 399.536      -68.4 
 399.760      -67.2 
 399.983      -66.8 
 400.206      -73.2 
 400.430      -71.6 
 400.653      -70.2 
 400.876      -65.2 
 401.100      -67.0 
 401.323      -69.7 
 401.546      -73.3 
 401.769      -73.5 
 401.993      -73.1 
 402.216      -70.5 
 402.439      -69.0 
 402.663      -66.8 
 402.886      -66.4 
 403.109      -67.6 
 403.333      -70.5 
 403.556      -70.1 
 403.779      -65.2 
 404.002      -66.6 
 404.226      -67.3 
 404.449      -70.2 
 404.672      -70.8 
 404.896      -69.4 
 405.119      -73.4 
 405.342      -77.2 
 405.566      -73.2 
 405.789      -69.9 
 406.012      -69.1 
 406.235      -64.6 
 406.459      -66.6 
 406.682      -68.1 
 406.905      -68.6 
 407.129      -71.2 
 407.352      -71.7 
 407.575      -69.0 
 407.798      -73.2 
 408.022      -70.6 
 408.245      -71.5 
 408.468      -70.9 
 408.692      -72.9 
 408.915      -74.8 
 409.138      -74.2 
 409.362      -69.9 
 409.585      -72.6 
 409.808      -72.1 
 410.031      -66.6 
 410.255      -66.8 
 410.478      -68.5 
 410.701      -67.7 
 410.925      -71.9 
 411.148      -72.3 
 411.371      -71.6 
 411.595      -70.3 
 411.818      -73.9 
 412.041      -70.3 
 412.264      -72.2 
 412.488      -70.4 
 412.711      -76.7 
 412.934      -81.1 
 413.158      -77.5 
 413.381      -69.2 
 413.604      -67.4 
 413.828      -73.3 
 414.051      -74.5 
 414.274      -69.9 
 414.497      -66.3 
 414.721      -65.1 
 414.944      -66.5 
 415.167      -68.7 
 415.391      -64.2 
 415.614      -68.1 
 415.837      -72.4 
 416.060      -74.7 
 416.284      -77.0 
 416.507      -74.0 
 416.730      -73.2 
 416.954      -69.6 
 417.177      -72.0 
 417.400      -70.5 
 417.624      -66.4 
 417.847      -69.6 
 418.070      -67.8 
 418.293      -66.7 
 418.517      -68.1 
 418.740      -69.5 
 418.963      -71.8 
 419.187      -65.0 
 419.410      -61.8 
 419.633      -65.8 
 419.857      -76.0 
 420.080      -76.1 
 420.303      -73.3 
 420.526      -72.4 
 420.750      -70.2 
 420.973      -62.0 
 421.196      -68.2 
 421.420      -73.7 
 421.643      -68.2 
 421.866      -72.3 
 422.090      -66.3 
 422.313      -63.1 
 422.536      -61.3 
 422.759      -67.3 
 422.983      -67.0 
 423.206      -67.3 
 423.429      -69.7 
 423.653      -73.4 
 423.876      -72.8 
 424.099      -71.7 
 424.322      -69.9 
 424.546      -70.7 
 424.769      -76.5 
 424.992      -73.7 
 425.216      -70.9 
 425.439      -65.8 
 425.662      -68.2 
 425.886      -66.5 
 426.109      -70.5 
 426.332      -68.1 
 426.555      -62.1 
 426.779      -63.2 
 427.002      -67.0 
 427.225      -70.3 
 427.449      -73.4 
 427.672      -69.1 
 427.895      -68.3 
 428.119      -67.7 
 428.342      -63.7 
 428.565      -61.3 
 428.788      -68.0 
 429.012      -60.0 
 429.235      -67.8 
 429.458      -74.2 
 429.682      -75.1 
 429.905      -70.4 
 430.128      -73.0 
 430.352      -71.5 
 430.575      -67.2 
 430.798      -66.1 
 431.021      -66.7 
 431.245      -69.6 
 431.468      -62.8 
 431.691      -66.1 
 431.915      -68.7 
 432.138      -76.3 
 432.361      -73.0 
 432.584      -69.7 
 432.808      -69.9 
 433.031      -71.3 
 433.254      -64.2 
 433.478      -62.9 
 433.701      -70.3 
 433.924      -70.8 
 434.148      -71.3 
 434.371      -62.1 
 434.594      -65.3 
 434.817      -66.5 
 435.041      -67.4 
 435.264      -72.3 
 435.487      -69.1 
 435.711      -71.2 
 435.934      -69.0 
 436.157      -67.7 
 436.381      -60.1 
 436.604      -59.2 
 436.827      -61.7 
 437.050      -68.3 
 437.274      -66.1 
 437.497      -70.3 
 437.720      -67.7 
 437.944      -66.7 
 438.167      -69.5 
 438.390      -66.6 
 438.614      -63.2 
 438.837      -64.6 
 439.060      -67.8 
 439.283      -68.2 
 439.507      -67.0 
 439.730      -68.4 
 439.953      -70.0 
 440.177      -71.9 
 440.400      -68.2 
 440.623      -66.4 
 440.846      -66.1 
 441.070      -71.1 
 441.293      -69.5 
 441.516      -70.2 
 441.740      -70.4 
 441.963      -70.6 
 442.186      -71.6 
 442.410      -75.1 
 442.633      -71.3 
 442.856      -70.0 
 443.079      -67.8 
 443.303      -70.8 
 443.526      -69.5 
 443.749      -66.8 
 443.973      -66.8 
 444.196      -66.9 
 444.419      -67.6 
 444.643      -69.8 
 444.866      -73.3 
 445.089      -70.0 
 445.312      -71.9 
 445.536      -68.8 
 445.759      -67.2 
 445.982      -67.2 
 446.206      -65.5 
 446.429      -67.1 
 446.652      -69.3 
 446.876      -67.8 
 447.099      -67.6 
 447.322      -72.2 
 447.545      -74.9 
 447.769      -69.8 
 447.992      -67.0 
 448.215      -65.2 
 448.439      -66.5 
 448.662      -66.4 
 448.885      -64.6 
 449.108      -65.9 
 449.332      -64.4 
 449.555      -65.3 
 449.778      -68.5 
 450.002      -72.0 
 450.225      -73.5 
 450.448      -68.3 
 450.672      -63.8 
 450.895      -63.1 
 451.118      -67.5 
 451.341      -70.6 
 451.565      -72.4 
 451.788      -74.7 
 452.011      -71.0 
 452.235      -67.4 
 452.458      -65.1 
 452.681      -62.1 
 452.905      -60.4 
 453.128      -66.1 
 453.351      -66.1 
 453.574      -62.5 
 453.798      -65.9 
 454.021      -66.5 
 454.244      -68.5 
 454.468      -70.5 
 454.691      -75.6 
 454.914      -69.4 
 455.138      -65.9 
 455.361      -68.9 
 455.584      -68.4 
 455.807      -69.7 
 456.031      -69.4 
 456.254      -70.5 
 456.477      -67.4 
 456.701      -67.5 
 456.924      -69.2 
 457.147      -69.8 
 457.370      -70.4 
 457.594      -67.1 
 457.817      -63.4 
 458.040      -61.1 
 458.264      -62.5 
 458.487      -63.0 
 458.710      -65.4 
 458.934      -64.6 
 459.157      -66.8 
 459.380      -61.1 
 459.603      -62.6 
 459.827      -67.0 
 460.050      -66.6 
 460.273      -66.3 
 460.497      -70.7 
 460.720      -65.7 
 460.943      -60.8 
 461.167      -66.1 
 461.390      -69.7 
 461.613      -68.9 
 461.836      -69.5 
 462.060      -66.3 
 462.283      -67.0 
 462.506      -64.1 
 462.730      -63.0 
 462.953      -60.8 
 463.176      -57.4 
 463.400      -56.9 
 463.623      -58.4 
 463.846      -60.8 
 464.069      -59.7 
 464.293      -63.4 
 464.516      -65.0 
 464.739      -56.3 
 464.963      -56.0 
 465.186      -54.7 
 465.409      -54.4 
 465.632      -54.4 
 465.856      -50.8 
 466.079      -51.7 
 466.302      -49.9 
 466.526      -49.1 
 466.749      -48.1 
 466.972      -44.1 
 467.196      -40.8 
 467.419      -38.2 
 467.642      -40.7 
 467.865      -41.7 
 468.089      -41.5 
 468.312      -43.1 
 468.535      -44.2 
 468.759      -40.3 
 468.982      -42.0 
 469.205      -42.1 
 469.429      -43.6 
 469.652      -42.7 
 469.875      -40.6 
 470.098      -33.7 
 470.322      -39.5 
 470.545      -42.2 
 470.768      -48.8 
 470.992      -53.1 
 471.215      -55.5 
 471.438      -63.3 
 471.662      -64.7 
 471.885      -64.9 
 472.108      -66.8 
 472.331      -71.4 
 472.555      -73.3 
 472.778      -69.0 
 473.001      -70.8 
 473.225      -77.0 
 473.448      -77.4 
 473.671      -81.0 
 473.894      -83.9 
 474.118      -85.7 
 474.341      -86.3 
 474.564      -85.1 
 474.788      -89.7 
 475.011      -90.6 
 475.234      -89.2 
 475.458      -88.2 
 475.681      -95.8 
 475.904     -103.9 
 476.127     -101.0 
 476.351     -100.3 
 476.574     -103.2 
 476.797     -101.6 
 477.021      -98.7 
 477.244     -100.5 
 477.467      -99.6 
 477.691      -93.0 
 477.914      -94.5 
 478.137      -98.0 
 478.360      -98.4 
 478.584      -95.5 
 478.807      -99.7 
 479.030      -92.4 
 479.254      -85.0 
 479.477      -85.2 
 479.700      -79.1 
 479.924      -72.1 
 480.147      -72.3 
 480.370      -74.1 
 480.593      -69.7 
 480.817      -66.6 
 481.040      -70.3 
 481.263      -68.1 
 481.487      -67.2 
 481.710      -61.4 
 481.933      -53.1 
 482.156      -51.1 
 482.380      -47.8 
 482.603      -42.7 
 482.826      -47.7 
 483.050      -42.4 
 483.273      -34.7 
 483.496      -33.8 
 483.720      -33.9 
 483.943      -29.8 
 484.166      -24.7 
 484.389      -27.3 
 484.613      -27.2 
 484.836      -23.0 
 485.059      -17.4 
 485.283      -21.0 
 485.506      -17.2 
 485.729       -9.1 
 485.953      -10.4 
 486.176       -8.8 
 486.399       -7.5 
 486.622       -8.9 
 486.846       -9.5 
 487.069      -13.5 
 487.292      -16.0 
 487.516      -19.8 
 487.739      -29.5 
 487.962      -33.3 
 488.186      -39.7 
 488.409      -46.6 
 488.632      -55.4 
 488.855      -65.6 
 489.079      -71.2 
 489.302      -77.8 
 489.525      -83.2 
 489.749      -92.1 
 489.972      -98.4 
 490.195     -105.8 
 490.418     -107.9 
 490.642     -115.1 
 490.865     -124.1 
 491.088     -130.9 
 491.312     -130.2 
 491.535     -124.8 
 491.758     -128.6 
 491.982     -127.0 
 492.205     -115.9 
 492.428     -112.5 
 492.651     -106.1 
 492.875     -104.3 
 493.098     -103.3 
 493.321     -102.7 
 493.545      -93.4 
 493.768      -90.7 
 493.991      -90.2 
 494.215      -95.0 
 494.438      -89.6 
 494.661      -85.3 
 494.884      -83.6 
 495.108      -83.3 
 495.331      -84.6 
 495.554      -85.6 
 495.778      -85.6 
 496.001      -88.9 
 496.224      -90.1 
 496.448      -94.2 
 496.671      -92.2 
 496.894      -98.6 
 497.117     -102.8 
 497.341     -108.8 
 497.564     -109.9 
 497.787     -110.0 
 498.011     -110.0 
 498.234     -113.1 
 498.457     -120.1 
 498.680     -122.0 
 498.904     -119.0 
 499.127     -113.3 
 499.350     -108.6 
 499.574     -109.0 
 499.797      -99.8 
 500.020      -89.6 
 500.244      -86.1 
 500.467      -81.1 
 500.690      -73.0 
 500.913      -63.1 
 501.137      -60.9 
 501.360      -52.9 
 501.583      -42.3 
 501.807      -26.0 
 502.030      -15.1 
 502.253       -2.7 
 502.477       13.6 
 502.700       29.7 
 502.923       41.7 
 503.146       57.9 
 503.370       74.5 
 503.593       85.6 
 503.816       96.8 
 504.040      113.3 
 504.263      128.5 
 504.486      140.4 
 504.710      153.5 
 504.933      167.0 
 505.156      183.0 
 505.379      198.9 
 505.603      207.4 
 505.826      222.4 
 506.049      236.8 
 506.273      246.7 
 506.496      259.1 
 506.719      262.8 
 506.943      267.4 
 507.166      270.5 
 507.389      270.6 
 507.612      270.5 
 507.836      263.5 
 508.059      248.4 
 508.282      230.1 
 508.506      205.1 
 508.729      172.8 
 508.952      133.2 
 509.175       85.6 
 509.399       36.4 
 509.622      -22.7 
 509.845      -82.8 
 510.069     -133.4 
 510.292     -198.3 
 510.515     -263.0 
 510.739     -327.9 
 510.962     -392.2 
 511.185     -448.3 
 511.408     -498.7 
 511.632     -540.9 
 511.855     -575.8 
 512.078     -601.0 
 512.302     -613.0 
 512.525     -617.7 
 512.748     -615.8 
 512.972     -607.0 
 513.195     -593.6 
 513.418     -575.6 
 513.641     -546.6 
 513.865     -508.0 
 514.088     -466.6 
 514.311     -430.8 
 514.535     -399.6 
 514.758     -361.0 
 514.981     -334.1 
 515.205     -310.9 
 515.428     -286.7 
 515.651     -260.8 
 515.874     -243.5 
 516.098     -224.7 
 516.321     -213.3 
 516.544     -200.5 
 516.768     -191.1 
 516.991     -184.7 
 517.214     -179.8 
 517.437     -172.7 
 517.661     -165.5 
 517.884     -159.3 
 518.107     -160.9 
 518.331     -153.2 
 518.554     -143.6 
 518.777     -140.1 
 519.001     -137.2 
 519.224     -135.2 
 519.447     -128.2 
 519.670     -128.4 
 519.894     -123.4 
 520.117     -121.5 
 520.340     -117.6 
 520.564     -107.6 
 520.787     -107.8 
 521.010     -101.4 
 521.234      -94.1 
 521.457      -96.0 
 521.680      -89.2 
 521.903      -86.7 
 522.127      -89.6 
 522.350      -94.3 
 522.573      -94.3 
 522.797      -91.0 
 523.020      -85.8 
 523.243      -79.0 
 523.467      -76.2 
 523.690      -76.7 
 523.913      -72.4 
 524.136      -74.5 
 524.360      -79.8 
 524.583      -80.8 
 524.806      -81.0 
 525.030      -83.0 
 525.253      -82.4 
 525.476      -83.1 
 525.699      -80.4 
 525.923      -78.1 
 526.146      -74.1 
 526.369      -80.0 
 526.593      -77.2 
 526.816      -78.4 
 527.039      -77.5 
 527.263      -80.1 
 527.486      -76.7 
 527.709      -73.8 
 527.932      -79.7 
 528.156      -77.3 
 528.379      -76.8 
 528.602      -75.9 
 528.826      -74.1 
 529.049      -72.5 
 529.272      -74.0 
 529.496      -70.6 
 529.719      -74.8 
 529.942      -81.4 
 530.165      -83.6 
 530.389      -83.0 
 530.612      -87.2 
 530.835      -80.8 
 531.059      -74.6 
 531.282      -75.2 
 531.505      -71.1 
 531.729      -68.3 
 531.952      -72.8 
 532.175      -70.9 
 532.398      -71.9 
 532.622      -74.9 
 532.845      -72.1 
 533.068      -73.7 
 533.292      -75.4 
 533.515      -76.6 
 533.738      -72.9 
 533.961      -72.9 
 534.185      -76.8 
 534.408      -77.4 
 534.631      -70.9 
 534.855      -72.4 
 535.078      -69.2 
 535.301      -72.2 
 535.525      -73.9 
 535.748      -73.1 
 535.971      -68.7 
 536.194      -69.1 
 536.418      -67.9 
 536.641      -73.1 
 536.864      -71.9 
 537.088      -66.5 
 537.311      -65.1 
 537.534      -71.8 
 537.758      -77.2 
 537.981      -77.8 
 538.204      -71.5 
 538.427      -68.2 
 538.651      -73.1 
 538.874      -71.0 
 539.097      -74.8 
 539.321      -75.0 
 539.544      -70.6 
 539.767      -71.7 
 539.991      -73.4 
 540.214      -73.9 
 540.437      -74.9 
 540.660      -72.0 
 540.884      -71.4 
 541.107      -75.4 
 541.330      -75.1 
 541.554      -69.9 
 541.777      -76.7 
 542.000      -72.4 
 542.223      -67.6 
 542.447      -64.9 
 542.670      -68.6 
 542.893      -67.2 
 543.117      -67.0 
 543.340      -71.5 
 543.563      -73.1 
 543.787      -68.7 
 544.010      -67.1 
 544.233      -66.8 
 544.456      -67.4 
 544.680      -71.2 
 544.903      -74.1 
 545.126      -73.8 
 545.350      -74.4 
 545.573      -72.9 
 545.796      -73.4 
 546.020      -75.4 
 546.243      -74.0 
 546.466      -67.8 
 546.689      -68.3 
 546.913      -73.1 
 547.136      -72.8 
 547.359      -69.8 
 547.583      -64.6 
 547.806      -65.2 
 548.029      -66.7 
 548.253      -70.0 
 548.476      -70.2 
 548.699      -73.4 
 548.922      -73.5 
 549.146      -73.9 
 549.369      -69.1 
 549.592      -70.5 
 549.816      -68.5 
 550.039      -74.4 
 550.262      -75.0 
 550.485      -65.3 
 550.709      -63.8 
 550.932      -68.1 
 551.155      -68.2 
 551.379      -69.8 
 551.602      -71.6 
 551.825      -67.3 
 552.049      -73.3 
 552.272      -75.8 
 552.495      -74.2 
 552.718      -66.9 
 552.942      -67.5 
 553.165      -63.9 
 553.388      -65.9 
 553.612      -65.2 
 553.835      -64.8 
 554.058      -64.3 
 554.282      -70.3 
 554.505      -69.8 
 554.728      -71.6 
 554.951      -71.0 
 555.175      -71.5 
 555.398      -69.5 
 555.621      -69.0 
 555.845      -68.6 
 556.068      -68.8 
 556.291      -62.9 
 556.515      -67.0 
 556.738      -68.1 
 556.961      -68.1 
 557.184      -67.7 
 557.408      -64.9 
 557.631      -66.6 
 557.854      -70.2 
 558.078      -74.6 
 558.301      -73.8 
 558.524      -68.1 
 558.747      -65.6 
 558.971      -68.8 
 559.194      -71.0 
 559.417      -69.6 
 559.641      -75.0 
 559.864      -70.6 
 560.087      -70.1 
 560.311      -69.7 
 560.534      -62.9 
 560.757      -64.4 
 560.980      -67.5 
 561.204      -68.6 
 561.427      -68.5 
 561.650      -65.6 
 561.874      -61.4 
 562.097      -62.0 
 562.320      -64.5 
 562.544      -71.3 
 562.767      -69.9 
 562.990      -67.8 
 563.213      -70.1 
 563.437      -64.8 
 563.660      -69.4 
 563.883      -70.5 
 564.107      -71.2 
 564.330      -76.0 
 564.553      -80.9 
 564.777      -76.2 
 565.000      -66.8 
 565.223      -65.1 
 565.446      -66.7 
 565.670      -71.7 
 565.893      -70.4 
 566.116      -67.2 
 566.340      -64.9 
 566.563      -67.9 
 566.786      -71.3 
 567.009      -70.3 
 567.233      -68.1 
 567.456      -63.4 
 567.679      -68.7 
 567.903      -63.6 
 568.126      -69.8 
 568.349      -73.4 
 568.573      -72.1 
 568.796      -73.9 
 569.019      -76.2 
 569.242      -74.3 
 569.466      -73.7 
 569.689      -69.2 
 569.912      -70.0 
 570.136      -73.0 
 570.359      -71.1 
 570.582      -70.8 
 570.806      -72.0 
 571.029      -70.9 
 571.252      -68.4 
 571.475      -66.1 
 571.699      -66.3 
 571.922      -68.2 
 572.145      -74.2 
 572.369      -75.1 
 572.592      -73.5 
 572.815      -72.0 
 573.039      -67.1 
 573.262      -68.5 
 573.485      -64.8 
 573.708      -69.2 
 573.932      -67.8 
 574.155      -64.7 
 574.378      -66.0 
 574.602      -62.2 
 574.825      -62.5 
 575.048      -65.7 
 575.271      -72.5 
 575.495      -71.6 
 575.718      -75.4 
 575.941      -75.7 
 576.165      -69.2 
 576.388      -64.5 
 576.611      -63.6 
 576.835      -68.9 
 577.058      -75.1 
 577.281      -73.5 
 577.504      -74.5 
 577.728      -70.4 
 577.951      -69.9 
 578.174      -68.8 
 578.398      -68.9 
 578.621      -70.5 
 578.844      -70.3 
 579.068      -66.5 
 579.291      -67.9 
 579.514      -71.1 
 579.737      -73.4 
 579.961      -74.7 
 580.184      -72.2 
 580.407      -69.8 
 580.631      -69.5 
 580.854      -74.2 
 581.077      -73.6 
 581.301      -66.5 
 581.524      -68.5 
 581.747      -68.3 
 581.970      -67.3 
 582.194      -66.9 
 582.417      -67.3 
 582.640      -68.6 
 582.864      -72.0 
 583.087      -72.2 
 583.310      -72.4 
 583.533      -71.6 
 583.757      -68.1 
 583.980      -67.4 
 584.203      -66.5 
 584.427      -67.3 
 584.650      -67.3 
 584.873      -70.4 
 585.097      -68.8 
 585.320      -68.4 
 585.543      -68.3 
 585.766      -71.3 
 585.990      -66.0 
 586.213      -70.2 
 586.436      -73.3 
 586.660      -71.0 
 586.883      -68.8 
 587.106      -71.0 
 587.330      -69.2 
 587.553      -67.0 
 587.776      -68.6 
 587.999      -68.5 
 588.223      -68.5 
 588.446      -69.7 
 588.669      -69.8 
 588.893      -68.9 
 589.116      -69.8 
 589.339      -68.7 
 589.563      -67.6 
 589.786      -67.5 
 590.009      -67.0 
 590.232      -66.5 
 590.456      -63.0 
 590.679      -66.6 
 590.902      -68.1 
 591.126      -64.2 
 591.349      -64.4 
 591.572      -66.7 
 591.795      -68.4 
 592.019      -68.9 
 592.242      -69.5 
 592.465      -62.1 
 592.689      -64.2 
 592.912      -70.4 
 593.135      -72.5 
 593.359      -70.7 
 593.582      -65.5 
 593.805      -65.3 
 594.028      -69.2 
 594.252      -67.2 
 594.475      -62.4 
 594.698      -62.3 
 594.922      -70.0 
 595.145      -70.5 
 595.368      -74.2 
 595.592      -74.6 
 595.815      -76.5 
 596.038      -71.4 
 596.261      -72.3 
 596.485      -72.5 
 596.708      -66.8 
 596.931      -65.6 
 597.155      -61.8 
 597.378      -62.2 
 597.601      -71.0 
 597.825      -70.9 
 598.048      -66.5 
 598.271      -64.4 
 598.494      -61.9 
 598.718      -63.0 
 598.941      -61.6 
 599.164      -59.7 
 599.388      -62.2 
 599.611      -62.3 
 599.834      -59.7 
 600.057      -62.0 
 600.281      -65.2 
 600.504      -67.2 
 600.727      -70.7 
 600.951      -69.4 
 601.174      -71.7 
 601.397      -66.9 
 601.621      -64.6 
 601.844      -64.1 
 602.067      -60.2 
 602.290      -60.7 
 602.514      -65.1 
 602.737      -63.4 
 602.960      -62.7 
 603.184      -63.0 
 603.407      -60.3 
 603.630      -61.3 
 603.854      -61.4 
 604.077      -65.5 
 604.300      -68.2 
 604.523      -67.0 
 604.747      -64.3 
 604.970      -62.5 
 605.193      -59.3 
 605.417      -62.6 
 605.640      -59.0 
 605.863      -58.7 
 606.087      -59.3 
 606.310      -60.1 
 606.533      -57.5 
 606.756      -53.3 
 606.980      -52.3 
 607.203      -52.0 
 607.426      -54.3 
 607.650      -57.9 
 607.873      -58.9 
 608.096      -58.7 
 608.320      -61.3 
 608.543      -59.2 
 608.766      -56.3 
 608.989      -55.3 
 609.213      -64.0 
 609.436      -76.0 
 609.659      -74.9 
 609.883      -71.7 
 610.106      -68.7 
 610.329      -69.8 
 610.552      -72.2 
 610.776      -75.3 
 610.999      -78.1 
 611.222      -73.2 
 611.446      -76.4 
 611.669      -82.8 
 611.892      -83.5 
 612.116      -81.9 
 612.339      -81.1 
 612.562      -80.1 
 612.785      -77.9 
 613.009      -78.9 
 613.232      -80.8 
 613.455      -80.3 
 613.679      -77.6 
 613.902      -76.5 
 614.125      -71.1 
 614.349      -72.4 
 614.572      -79.6 
 614.795      -73.4 
 615.018      -72.1 
 615.242      -62.1 
 615.465      -62.5 
 615.688      -64.7 
 615.912      -63.7 
 616.135      -67.7 
 616.358      -67.7 
 616.582      -67.8 
 616.805      -65.6 
 617.028      -64.4 
 617.251      -67.9 
 617.475      -66.3 
 617.698      -63.1 
 617.921      -67.0 
 618.145      -64.8 
 618.368      -65.4 
 618.591      -63.6 
 618.814      -62.4 
 619.038      -64.1 
 619.261      -66.6 
 619.484      -66.9 
 619.708      -69.9 
 619.931      -68.5 
 620.154      -64.4 
 620.378      -66.4 
 620.601      -64.4 
 620.824      -70.1 
 621.047      -72.0 
 621.271      -70.5 
 621.494      -66.7 
 621.717      -57.3 
 621.941      -59.3 
 622.164      -60.4 
 622.387      -59.7 
 622.611      -62.9 
 622.834      -61.6 
 623.057      -57.3 
 623.280      -53.3 
 623.504      -50.2 
 623.727      -47.5 
 623.950      -47.6 
 624.174      -48.1 
 624.397      -40.9 
 624.620      -47.2 
 624.844      -49.1 
 625.067      -46.1 
 625.290      -44.1 
 625.513      -48.5 
 625.737      -53.9 
 625.960      -56.7 
 626.183      -56.5 
 626.407      -54.2 
 626.630      -50.7 
 626.853      -49.9 
 627.076      -53.7 
 627.300      -49.1 
 627.523      -50.1 
 627.746      -59.6 
 627.970      -63.2 
 628.193      -70.3 
 628.416      -76.0 
 628.640      -77.0 
 628.863      -84.3 
 629.086      -91.7 
 629.309     -100.5 
 629.533     -106.5 
 629.756     -110.2 
 629.979     -108.8 
 630.203     -110.9 
 630.426     -109.1 
 630.649     -111.3 
 630.873     -103.3 
 631.096     -102.5 
 631.319     -105.2 
 631.542     -107.2 
 631.766     -109.5 
 631.989     -112.6 
 632.212     -106.9 
 632.436      -97.4 
 632.659      -93.0 
 632.882      -88.2 
 633.106      -84.4 
 633.329      -81.5 
 633.552      -74.3 
 633.775      -64.5 
 633.999      -64.6 
 634.222      -65.8 
 634.445      -70.3 
 634.669      -68.0 
 634.892      -58.8 
 635.115      -54.1 
 635.338      -55.2 
 635.562      -52.9 
 635.785      -56.3 
 636.008      -55.1 
 636.232      -55.6 
 636.455      -58.7 
 636.678      -62.3 
 636.902      -62.4 
 637.125      -67.5 
 637.348      -68.4 
 637.571      -68.2 
 637.795      -73.0 
 638.018      -74.8 
 638.241      -76.5 
 638.465      -75.8 
 638.688      -76.7 
 638.911      -82.5 
 639.135      -82.2 
 639.358      -77.5 
 639.581      -77.0 
 639.804      -76.2 
 640.028      -76.6 
 640.251      -79.8 
 640.474      -75.8 
 640.698      -68.8 
 640.921      -72.4 
 641.144      -71.0 
 641.368      -67.6 
 641.591      -60.7 
 641.814      -63.6 
 642.037      -62.6 
 642.261      -59.9 
 642.484      -55.9 
 642.707      -51.7 
 642.931      -50.4 
 643.154      -55.6 
 643.377      -57.2 
 643.600      -52.4 
 643.824      -47.6 
 644.047      -51.0 
 644.270      -55.0 
 644.494      -56.6 
 644.717      -53.1 
 644.940      -49.8 
 645.164      -47.6 
 645.387      -52.8 
 645.610      -52.8 
 645.833      -54.9 
 646.057      -49.5 
 646.280      -43.2 
 646.503      -40.4 
 646.727      -42.1 
 646.950      -42.7 
 647.173      -39.3 
 647.397      -30.4 
 647.620      -24.7 
 647.843      -17.5 
 648.066       -7.7 
 648.290        3.1 
 648.513        7.0 
 648.736       12.3 
 648.960       10.6 
 649.183       16.0 
 649.406       17.9 
 649.630       31.7 
 649.853       42.5 
 650.076       53.4 
 650.299       63.4 
 650.523       74.3 
 650.746       83.0 
 650.969       93.0 
 651.193       92.0 
 651.416       86.5 
 651.639       86.3 
 651.862       89.1 
 652.086       86.0 
 652.309       78.1 
 652.532       67.2 
 652.756       55.4 
 652.979       39.3 
 653.202       14.2 
 653.426      -13.2 
 653.649      -40.8 
 653.872      -74.7 
 654.095     -105.1 
 654.319     -129.4 
 654.542     -159.8 
 654.765     -187.3 
 654.989     -213.5 
 655.212     -243.1 
 655.435     -266.1 
 655.659     -287.7 
 655.882     -298.9 
 656.105     -311.6 
 656.328     -319.7 
 656.552     -322.7 
 656.775     -314.9 
 656.998     -306.7 
 657.222     -298.4 
 657.445     -283.2 
 657.668     -268.2 
 657.892     -250.3 
 658.115     -235.4 
 658.338     -218.5 
 658.561     -201.8 
 658.785     -192.2 
 659.008     -186.9 
 659.231     -174.9 
 659.455     -161.9 
 659.678     -142.4 
 659.901     -131.9 
 660.124     -126.9 
 660.348     -123.2 
 660.571     -117.5 
 660.794     -109.6 
 661.018     -103.8 
 661.241      -96.4 
 661.464      -94.7 
 661.688      -93.7 
 661.911      -91.9 
 662.134      -87.5 
 662.357      -86.8 
 662.581      -85.6 
 662.804      -80.1 
 663.027      -80.3 
 663.251      -77.6 
 663.474      -80.7 
 663.697      -75.2 
 663.921      -75.0 
 664.144      -75.9 
 664.367      -67.3 
 664.590      -64.8 
 664.814      -71.5 
 665.037      -70.1 
 665.260      -70.7 
 665.484      -72.7 
 665.707      -71.3 
 665.930      -71.5 
 666.154      -71.9 
 666.377      -68.6 
 666.600      -61.7 
 666.823      -65.1 
 667.047      -67.2 
 667.270      -67.1 
 667.493      -67.1 
 667.717      -75.3 
 667.940      -75.6 
 668.163      -72.8 
 668.386      -66.5 
 668.610      -66.3 
 668.833      -67.2 
 669.056      -75.0 
 669.280      -75.5 
 669.503      -71.8 
 669.726      -64.2 
 669.950      -66.9 
 670.173      -69.6 
 670.396      -75.0 
 670.619      -76.4 
 670.843      -74.5 
 671.066      -75.3 
 671.289      -74.7 
 671.513      -69.6 
 671.736      -73.5 
 671.959      -75.4 
 672.183      -76.0 
 672.406      -73.7 
 672.629      -70.8 
 672.852      -71.5 
 673.076      -72.7 
 673.299      -69.4 
 673.522      -65.5 
 673.746      -68.7 
 673.969      -73.5 
 674.192      -69.5 
 674.416      -64.7 
 674.639      -61.3 
 674.862      -61.7 
 675.085      -61.2 
 675.309      -67.3 
 675.532      -65.9 
 675.755      -64.5 
 675.979      -63.8 
 676.202      -65.1 
 676.425      -64.0 
 676.648      -69.5 
 676.872      -69.2 
 677.095      -68.7 
 677.318      -71.5 
 677.542      -66.5 
 677.765      -62.5 
 677.988      -63.9 
 678.212      -61.5 
 678.435      -61.6 
 678.658      -66.6 
 678.881      -69.4 
 679.105      -69.0 
 679.328      -77.8 
 679.551      -82.3 
 679.775      -77.4 
 679.998      -71.7 
 680.221      -66.0 
 680.445      -62.5 
 680.668      -57.3 
 680.891      -59.8 
 681.114      -67.8 
 681.338      -65.2 
 681.561      -61.7 
 681.784      -65.7 
 682.008      -67.6 
 682.231      -67.2 
 682.454      -64.6 
 682.678      -66.8 
 682.901      -68.3 
 683.124      -71.8 
 683.347      -73.2 
 683.571      -77.7 
 683.794      -69.5 
 684.017      -63.7 
 684.241      -64.8 
 684.464      -67.8 
 684.687      -67.3 
 684.910      -66.8 
 685.134      -65.3 
 685.357      -67.9 
 685.580      -67.6 
 685.804      -64.9 
 686.027      -62.4 
 686.250      -60.2 
 686.474      -64.6 
 686.697      -65.5 
 686.920      -67.3 
 687.143      -62.6 
 687.367      -63.8 
 687.590      -61.2 
 687.813      -60.6 
 688.037      -61.4 
 688.260      -59.8 
 688.483      -65.7 
 688.707      -67.4 
 688.930      -67.7 
 689.153      -69.0 
 689.376      -74.3 
 689.600      -72.4 
 689.823      -70.6 
 690.046      -64.3 
 690.270      -66.6 
 690.493      -65.8 
 690.716      -64.9 
 690.940      -62.1 
 691.163      -63.0 
 691.386      -65.9 
 691.609      -69.7 
 691.833      -68.5 
 692.056      -65.9 
 692.279      -68.2 
 692.503      -71.2 
 692.726      -66.3 
 692.949      -68.2 
 693.172      -68.0 
 693.396      -65.2 
 693.619      -63.1 
 693.842      -59.0 
 694.066      -61.2 
 694.289      -70.0 
 694.512      -64.4 
 694.736      -64.1 
 694.959      -64.6 
 695.182      -58.7 
 695.405      -58.6 
 695.629      -62.6 
 695.852      -66.8 
 696.075      -69.2 
 696.299      -69.0 
 696.522      -64.6 
 696.745      -61.9 
 696.969      -63.6 
 697.192      -65.8 
 697.415      -70.0 
 697.638      -66.4 
 697.862      -65.5 
 698.085      -65.0 
 698.308      -63.0 
 698.532      -61.8 
 698.755      -58.3 
 698.978      -62.3 
 699.202      -66.5 
 699.425      -67.0 
 699.648      -64.4 
 699.871      -59.1 
 700.095      -56.4 
 700.318      -62.2 
 700.541      -63.8 
 700.765      -65.1 
 700.988      -68.3 
 701.211      -68.8 
 701.434      -70.6 
 701.658      -72.4 
 701.881      -73.3 
 702.104      -67.2 
 702.328      -64.8 
 702.551      -64.5 
 702.774      -67.3 
 702.998      -65.4 
 703.221      -68.6 
 703.444      -68.0 
 703.667      -62.9 
 703.891      -58.1 
 704.114      -66.1 
 704.337      -66.6 
 704.561      -64.8 
 704.784      -62.5 
 705.007      -60.7 
 705.231      -64.0 
 705.454      -61.4 
 705.677      -60.0 
 705.900      -62.5 
 706.124      -67.4 
 706.347      -66.1 
 706.570      -69.2 
 706.794      -70.6 
 707.017      -65.3 
 707.240      -65.1 
 707.464      -70.3 
 707.687      -67.0 
 707.910      -71.8 
 708.133      -69.5 
 708.357      -74.4 
 708.580      -73.3 
 708.803      -73.9 
 709.027      -69.3 
 709.250      -62.0 
 709.473      -62.6 
 709.697      -61.0 
 709.920      -61.1 
 710.143      -62.4 
 710.366      -64.1 
 710.590      -70.5 
 710.813      -67.8 
 711.036      -66.4 
 711.260      -61.0 
 711.483      -65.1 
 711.706      -62.4 
 711.929      -57.7 
 712.153      -60.8 
 712.376      -61.7 
 712.599      -61.3 
 712.823      -56.9 
 713.046      -59.2 
 713.269      -58.6 
 713.493      -62.2 
 713.716      -63.6 
 713.939      -60.0 
 714.162      -61.5 
 714.386      -64.1 
 714.609      -68.7 
 714.832      -72.1 
 715.056      -75.2 
 715.279      -71.8 
 715.502      -69.2 
 715.726      -70.7 
 715.949      -66.5 
 716.172      -64.8 
 716.395      -63.0 
 716.619      -61.6 
 716.842      -59.8 
 717.065      -61.8 
 717.289      -67.6 
 717.512      -66.6 
 717.735      -65.3 
 717.959      -72.2 
 718.182      -68.3 
 718.405      -65.0 
 718.628      -64.1 
 718.852      -64.7 
 719.075      -63.5 
 719.298      -64.9 
 719.522      -68.4 
 719.745      -60.8 
 719.968      -58.1 
 720.191      -62.9 
 720.415      -59.6 
 720.638      -59.2 
 720.861      -61.2 
 721.085      -64.9 
 721.308      -70.5 
 721.531      -67.4 
 721.755      -69.3 
 721.978      -65.9 
 722.201      -63.8 
 722.424      -69.7 
 722.648      -71.2 
 722.871      -70.8 
 723.094      -66.4 
 723.318      -63.8 
 723.541      -68.1 
 723.764      -68.8 
 723.988      -67.7 
 724.211      -68.8 
 724.434      -65.4 
 724.657      -66.5 
 724.881      -65.5 
 725.104      -66.6 
 725.327      -68.9 
 725.551      -75.9 
 725.774      -77.2 
 725.997      -72.4 
 726.221      -67.3 
 726.444      -60.7 
 726.667      -64.0 
 726.890      -59.3 
 727.114      -57.0 
 727.337      -61.0 
 727.560      -66.8 
 727.784      -68.6 
 728.007      -66.9 
 728.230      -69.4 
 728.453      -66.3 
 728.677      -65.7 
 728.900      -64.9 
 729.123      -63.6 
 729.347      -69.9 
 729.570      -72.4 
 729.793      -66.2 
 730.017      -68.2 
 730.240      -70.8 
 730.463      -67.4 
 730.686      -63.7 
 730.910      -68.1 
 731.133      -68.4 
 731.356      -63.7 
 731.580      -62.2 
 731.803      -68.2 
 732.026      -67.5 
 732.250      -64.4 
 732.473      -65.9 
 732.696      -69.1 
 732.919      -66.8 
 733.143      -65.3 
 733.366      -69.6 
 733.589      -68.1 
 733.813      -58.3 
 734.036      -63.2 
 734.259      -66.1 
 734.483      -65.3 
 734.706      -66.1 
 734.929      -64.0 
 735.152      -63.5 
 735.376      -56.7 
 735.599      -58.4 
 735.822      -60.4 
 736.046      -62.0 
 736.269      -63.3 
 736.492      -67.5 
 736.715      -74.9 
 736.939      -73.2 
 737.162      -67.5 
 737.385      -63.0 
 737.609      -62.1 
 737.832      -65.7 
 738.055      -70.8 
 738.279      -67.0 
 738.502      -64.5 
 738.725      -66.4 
 738.948      -68.5 
 739.172      -71.5 
 739.395      -69.6 
 739.618      -60.4 
 739.842      -59.1 
 740.065      -62.7 
 740.288      -62.3 
 740.512      -60.7 
 740.735      -60.3 
 740.958      -63.3 
 741.181      -65.5 
 741.405      -68.1 
 741.628      -64.3 
 741.851      -63.0 
 742.075      -61.5 
 742.298      -62.5 
 742.521      -62.9 
 742.745      -66.8 
 742.968      -62.3 
 743.191      -61.4 
 743.414      -66.9 
 743.638      -68.6 
 743.861      -70.0 
 744.084      -70.0 
 744.308      -67.1 
 744.531      -64.9 
 744.754      -62.5 
 744.977      -62.9 
 745.201      -68.5 
 745.424      -70.7 
 745.647      -75.3 
 745.871      -66.0 
 746.094      -62.7 
 746.317      -66.9 
 746.541      -66.0 
 746.764      -67.8 
 746.987      -65.1 
 747.210      -69.6 
 747.434      -68.3 
 747.657      -64.4 
 747.880      -65.0 
 748.104      -65.4 
 748.327      -64.2 
 748.550      -61.4 
 748.774      -64.7 
 748.997      -63.5 
 749.220      -63.2 
 749.443      -60.4 
 749.667      -60.6 
 749.890      -64.1 
 750.113      -59.5 
 750.337      -70.3 
 750.560      -67.4 
 750.783      -61.5 
 751.007      -63.3 
 751.230      -63.5 
 751.453      -62.1 
 751.676      -63.4 
 751.900      -67.8 
 752.123      -66.6 
 752.346      -65.1 
 752.570      -65.2 
 752.793      -65.6 
 753.016      -65.6 
 753.239      -63.3 
 753.463      -64.3 
 753.686      -65.1 
 753.909      -64.9 
 754.133      -63.2 
 754.356      -67.9 
 754.579      -65.9 
 754.803      -61.9 
 755.026      -64.3 
 755.249      -68.4 
 755.472      -67.6 
 755.696      -67.5 
 755.919      -64.8 
 756.142      -64.6 
 756.366      -63.9 
 756.589      -59.4 
 756.812      -59.4 
 757.036      -62.0 
 757.259      -72.4 
 757.482      -71.7 
 757.705      -69.9 
 757.929      -67.5 
 758.152      -69.2 
 758.375      -71.2 
 758.599      -66.4 
 758.822      -68.7 
 759.045      -60.5 
 759.269      -65.2 
 759.492      -68.7 
 759.715      -65.6 
 759.938      -57.2 
 760.162      -62.8 
 760.385      -62.7 
 760.608      -64.1 
 760.832      -63.9 
 761.055      -63.7 
 761.278      -65.4 
 761.501      -67.5 
 761.725      -59.8 
 761.948      -57.0 
 762.171      -56.1 
 762.395      -62.5 
 762.618      -68.1 
 762.841      -66.7 
 763.065      -67.9 
 763.288      -60.9 
 763.511      -61.3 
 763.734      -62.2 
 763.958      -56.9 
 764.181      -61.5 
 764.404      -65.5 
 764.628      -65.5 
 764.851      -64.6 
 765.074      -65.0 
 765.298      -67.5 
 765.521      -60.8 
 765.744      -61.5 
 765.967      -55.8 
 766.191      -55.6 
 766.414      -60.6 
 766.637      -64.2 
 766.861      -67.1 
 767.084      -66.9 
 767.307      -65.9 
 767.531      -65.4 
 767.754      -65.0 
 767.977      -59.5 
 768.200      -59.2 
 768.424      -60.3 
 768.647      -60.1 
 768.870      -65.7 
 769.094      -64.7 
 769.317      -63.7 
 769.540      -69.3 
 769.763      -59.4 
 769.987      -58.6 
 770.210      -62.1 
 770.433      -69.6 
 770.657      -69.7 
 770.880      -65.1 
 771.103      -61.6 
 771.327      -59.5 
 771.550      -60.0 
 771.773      -60.1 
 771.996      -67.1 
 772.220      -68.5 
 772.443      -66.4 
 772.666      -64.8 
 772.890      -58.9 
 773.113      -66.8 
 773.336      -73.3 
 773.560      -67.6 
 773.783      -67.8 
 774.006      -71.9 
 774.229      -64.4 
 774.453      -65.5 
 774.676      -57.8 
 774.899      -59.5 
 775.123      -59.9 
 775.346      -65.2 
 775.569      -61.7 
 775.793      -59.0 
 776.016      -61.3 
 776.239      -65.1 
 776.462      -62.8 
 776.686      -59.8 
 776.909      -65.8 
 777.132      -66.2 
 777.356      -63.8 
 777.579      -63.2 
 777.802      -63.1 
 778.025      -59.8 
 778.249      -56.7 
 778.472      -59.2 
 778.695      -59.7 
 778.919      -60.7 
 779.142      -56.8 
 779.365      -61.3 
 779.589      -61.7 
 779.812      -63.2 
 780.035      -67.4 
 780.258      -65.9 
 780.482      -62.2 
 780.705      -59.4 
 780.928      -55.3 
 781.152      -63.3 
 781.375      -65.8 
 781.598      -67.6 
 781.822      -63.4 
 782.045      -64.4 
 782.268      -64.0 
 782.491      -61.4 
 782.715      -60.7 
 782.938      -60.5 
 783.161      -59.6 
 783.385      -63.0 
 783.608      -61.5 
 783.831      -57.2 
 784.055      -57.0 
 784.278      -54.5 
 784.501      -56.6 
 784.724      -55.2 
 784.948      -68.2 
 785.171      -68.6 
 785.394      -67.3 
 785.618      -68.4 
 785.841      -65.4 
 786.064      -61.3 
 786.287      -66.2 
 786.511      -61.0 
 786.734      -60.2 
 786.957      -65.6 
 787.181      -66.9 
 787.404      -64.8 
 787.627      -66.6 
 787.851      -65.4 
 788.074      -60.9 
 788.297      -62.9 
 788.520      -62.3 
 788.744      -64.3 
 788.967      -64.8 
 789.190      -64.6 
 789.414      -66.8 
 789.637      -65.4 
 789.860      -65.6 
 790.084      -64.2 
 790.307      -70.3 
 790.530      -64.7 
 790.753      -64.6 
 790.977      -63.9 
 791.200      -60.0 
 791.423      -58.0 
 791.647      -57.6 
 791.870      -59.6 
 792.093      -57.3 
 792.317      -61.1 
 792.540      -60.1 
 792.763      -63.0 
 792.986      -64.1 
 793.210      -59.6 
 793.433      -61.0 
 793.656      -61.5 
 793.880      -63.4 
 794.103      -65.2 
 794.326      -67.3 
 794.549      -73.9 
 794.773      -65.9 
 794.996      -58.8 
 795.219      -64.4 
 795.443      -64.0 
 795.666      -61.2 
 795.889      -62.6 
 796.113      -68.2 
 796.336      -68.3 
 796.559      -62.4 
 796.782      -64.3 
 797.006      -65.5 
 797.229      -58.9 
 797.452      -66.6 
 797.676      -63.2 
 797.899      -69.0 
 798.122      -64.2 
 798.346      -58.8 
 798.569      -68.3 
 798.792      -62.7 
 799.015      -66.3 
 799.239      -62.8 
 799.462      -58.0 
 799.685      -61.4 
 799.909      -58.7 
 800.132      -60.3 
 800.355      -62.4 
 800.579      -64.6 
 800.802      -57.0 
 801.025      -55.0 
 801.248      -57.4 
 801.472      -57.2 
 801.695      -56.3 
 801.918      -54.6 
 802.142      -55.7 
 802.365      -58.0 
 802.588      -56.6 
 802.812      -57.1 
 803.035      -56.9 
 803.258      -51.3 
 803.481      -54.0 
 803.705      -54.9 
 803.928      -62.0 
 804.151      -65.6 
 804.375      -67.8 
 804.598      -69.5 
 804.821      -65.0 
 805.044      -65.4 
 805.268      -65.8 
 805.491      -67.6 
 805.714      -66.0 
 805.938      -71.2 
 806.161      -71.1 
 806.384      -66.7 
 806.608      -61.4 
 806.831      -69.0 
 807.054      -66.1 
 807.277      -68.4 
 807.501      -59.9 
 807.724      -57.8 
 807.947      -57.5 
 808.171      -55.7 
 808.394      -69.0 
 808.617      -65.3 
 808.841      -58.0 
 809.064      -56.9 
 809.287      -60.9 
 809.510      -67.7 
 809.734      -64.8 
 809.957      -64.1 
 810.180      -60.4 
 810.404      -59.2 
 810.627      -59.4 
 810.850      -64.8 
 811.074      -66.2 
 811.297      -65.5 
 811.520      -60.3 
 811.743      -57.7 
 811.967      -59.8 
 812.190      -64.1 
 812.413      -64.3 
 812.637      -67.3 
 812.860      -67.1 
 813.083      -65.1 
 813.306      -59.3 
 813.530      -56.5 
 813.753      -59.6 
 813.976      -60.7 
 814.200      -61.1 
 814.423      -61.0 
 814.646      -61.8 
 814.870      -52.7 
 815.093      -51.2 
 815.316      -59.6 
 815.539      -60.8 
 815.763      -58.0 
 815.986      -52.0 
 816.209      -54.2 
 816.433      -58.6 
 816.656      -58.1 
 816.879      -56.2 
 817.103      -61.5 
 817.326      -65.1 
 817.549      -61.2 
 817.772      -58.7 
 817.996      -59.5 
 818.219      -61.3 
 818.442      -63.3 
 818.666      -63.2 
 818.889      -64.8 
 819.112      -57.6 
 819.336      -55.0 
 819.559      -58.4 
 819.782      -62.7 
 820.005      -61.6 
 820.229      -63.8 
 820.452      -62.8 
 820.675      -61.9 
 820.899      -60.0 
 821.122      -55.8 
 821.345      -59.7 
 821.568      -63.3 
 821.792      -59.5 
 822.015      -63.0 
 822.238      -65.5 
 822.462      -64.9 
 822.685      -66.0 
 822.908      -67.6 
 823.132      -67.0 
 823.355      -58.8 
 823.578      -58.1 
 823.801      -62.8 
 824.025      -62.6 
 824.248      -63.0 
 824.471      -66.3 
 824.695      -66.3 
 824.918      -62.6 
 825.141      -60.4 
 825.365      -65.6 
 825.588      -70.5 
 825.811      -68.0 
 826.034      -62.2 
 826.258      -56.7 
 826.481      -56.8 
 826.704      -57.7 
 826.928      -57.9 
 827.151      -63.0 
 827.374      -71.9 
 827.598      -67.5 
 827.821      -64.3 
 828.044      -62.6 
 828.267      -61.4 
 828.491      -58.7 
 828.714      -57.4 
 828.937      -58.1 
 829.161      -59.4 
 829.384      -56.3 
 829.607      -55.9 
 829.830      -54.5 
 830.054      -60.1 
 830.277      -61.7 
 830.500      -57.7 
 830.724      -57.7 
 830.947      -61.6 
 831.170      -59.1 
 831.394      -63.2 
 831.617      -67.7 
 831.840      -62.4 
 832.063      -58.2 
 832.287      -58.5 
 832.510      -62.6 
 832.733      -53.2 
 832.957      -59.4 
 833.180      -62.0 
 833.403      -60.1 
 833.627      -62.6 
 833.850      -61.0 
 834.073      -62.7 
 834.296      -59.6 
 834.520      -61.4 
 834.743      -67.0 
 834.966      -66.1 
 835.190      -66.1 
 835.413      -68.5 
 835.636      -65.5 
 835.860      -59.0 
 836.083      -55.4 
 836.306      -58.9 
 836.529      -62.0 
 836.753      -65.2 
 836.976      -65.5 
 837.199      -64.1 
 837.423      -63.4 
 837.646      -59.8 
 837.869      -62.5 
 838.092      -68.6 
 838.316      -67.3 
 838.539      -62.6 
 838.762      -59.3 
 838.986      -54.1 
 839.209      -55.4 
 839.432      -54.5 
 839.656      -60.0 
 839.879      -65.1 
 840.102      -70.2 
 840.325      -72.3 
 840.549      -68.6 
 840.772      -70.2 
 840.995      -63.4 
 841.219      -61.9 
 841.442      -59.3 
 841.665      -60.1 
 841.889      -62.5 
 842.112      -64.3 
 842.335      -66.9 
 842.558      -64.8 
 842.782      -59.8 
 843.005      -55.4 
 843.228      -59.6 
 843.452      -64.4 
 843.675      -61.6 
 843.898      -60.5 
 844.122      -54.9 
 844.345      -56.7 
 844.568      -60.8 
 844.791      -61.4 
 845.015      -60.1 
 845.238      -58.5 
 845.461      -59.4 
 845.685      -59.7 
 845.908      -57.9 
 846.131      -61.3 
 846.354      -63.4 
 846.578      -57.3 
 846.801      -58.7 
 847.024      -58.6 
 847.248      -59.5 
 847.471      -57.8 
 847.694      -58.5 
 847.918      -65.8 
 848.141      -60.2 
 848.364      -65.4 
 848.587      -64.6 
 848.811      -62.7 
 849.034      -66.8 
 849.257      -67.8 
 849.481      -63.9 
 849.704      -60.7 
 849.927      -59.3 
 850.151      -57.4 
 850.374      -60.8 
 850.597      -63.9 
 850.820      -65.6 
 851.044      -61.9 
 851.267      -61.1 
 851.490      -63.2 
 851.714      -63.4 
 851.937      -64.8 
 852.160      -59.9 
 852.384      -61.9 
 852.607      -68.0 
 852.830      -61.7 
 853.053      -59.3 
 853.277      -54.7 
 853.500      -58.1 
 853.723      -58.7 
 853.947      -59.8 
 854.170      -58.4 
 854.393      -61.4 
 854.616      -65.3 
 854.840      -65.8 
 855.063      -60.4 
 855.286      -55.6 
 855.510      -55.1 
 855.733      -54.8 
 855.956      -63.3 
 856.180      -66.2 
 856.403      -70.7 
 856.626      -66.2 
 856.849      -58.1 
 857.073      -64.4 
 857.296      -66.3 
 857.519      -60.2 
 857.743      -60.6 
 857.966      -64.4 
 858.189      -61.1 
 858.413      -57.3 
 858.636      -55.6 
 858.859      -57.9 
 859.082      -57.9 
 859.306      -51.0 
 859.529      -49.9 
 859.752      -52.5 
 859.976      -57.1 
 860.199      -58.5 
 860.422      -59.3 
 860.646      -59.9 
 860.869      -58.8 
 861.092      -61.8 
 861.315      -65.0 
 861.539      -66.3 
 861.762      -60.7 
 861.985      -60.0 
 862.209      -61.0 
 862.432      -59.5 
 862.655      -56.1 
 862.878      -59.0 
 863.102      -59.8 
 863.325      -57.0 
 863.548      -52.7 
 863.772      -52.6 
 863.995      -54.6 
 864.218      -56.9 
 864.442      -60.2 
 864.665      -65.4 
 864.888      -64.6 
 865.111      -57.9 
 865.335      -55.8 
 865.558      -51.1 
 865.781      -50.5 
 866.005      -55.6 
 866.228      -58.9 
 866.451      -62.8 
 866.675      -50.4 
 866.898      -54.0 
 867.121      -61.4 
 867.344      -66.3 
 867.568      -69.6 
 867.791      -61.7 
 868.014      -64.0 
 868.238      -63.6 
 868.461      -64.2 
 868.684      -62.6 
 868.908      -58.9 
 869.131      -54.0 
 869.354      -52.9 
 869.577      -50.7 
 869.801      -53.2 
 870.024      -54.9 
 870.247      -53.2 
 870.471      -57.2 
 870.694      -57.3 
 870.917      -62.0 
 871.140      -62.9 
 871.364      -61.3 
 871.587      -62.5 
 871.810      -60.6 
 872.034      -53.7 
 872.257      -58.2 
 872.480      -63.5 
 872.704      -62.8 
 872.927      -52.2 
 873.150      -53.3 
 873.373      -57.9 
 873.597      -57.8 
 873.820      -62.3 
 874.043      -68.1 
 874.267      -62.2 
 874.490      -61.7 
 874.713      -64.2 
 874.937      -63.7 
 875.160      -64.3 
 875.383      -60.6 
 875.606      -57.2 
 875.830      -60.2 
 876.053      -59.8 
 876.276      -51.9 
 876.500      -49.3 
 876.723      -55.9 
 876.946      -58.7 
 877.170      -58.2 
 877.393      -56.1 
 877.616      -59.7 
 877.839      -61.4 
 878.063      -57.9 
 878.286      -59.2 
 878.509      -58.1 
 878.733      -56.9 
 878.956      -57.9 
 879.179      -57.6 
 879.402      -60.5 
 879.626      -58.6 
 879.849      -58.3 
 880.072      -60.4 
 880.296      -63.4 
 880.519      -64.6 
 880.742      -66.2 
 880.966      -63.3 
 881.189      -61.3 
 881.412      -62.1 
 881.635      -64.5 
 881.859      -62.2 
 882.082      -62.8 
 882.305      -66.1 
 882.529      -67.6 
 882.752      -66.7 
 882.975      -60.3 
 883.199      -64.1 
 883.422      -62.8 
 883.645      -62.1 
 883.868      -62.3 
 884.092      -66.3 
 884.315      -61.0 
 884.538      -55.0 
 884.762      -57.1 
 884.985      -56.6 
 885.208      -53.7 
 885.432      -52.2 
 885.655      -56.7 
 885.878      -56.0 
 886.101      -56.8 
 886.325      -58.1 
 886.548      -54.4 
 886.771      -53.9 
 886.995      -54.6 
 887.218      -60.7 
 887.441      -61.2 
 887.664      -53.8 
 887.888      -53.9 
 888.111      -60.8 
 888.334      -60.7 
 888.558      -62.7 
 888.781      -59.2 
 889.004      -60.1 
 889.228      -61.3 
 889.451      -57.5 
 889.674      -53.7 
 889.897      -54.9 
 890.121      -69.2 
 890.344      -66.0 
 890.567      -58.0 
 890.791      -54.5 
 891.014      -57.5 
 891.237      -53.5 
 891.461      -54.1 
 891.684      -58.1 
 891.907      -57.9 
 892.130      -57.3 
 892.354      -59.4 
 892.577      -57.7 
 892.800      -57.5 
 893.024      -57.2 
 893.247      -56.1 
 893.470      -55.8 
 893.694      -58.8 
 893.917      -61.6 
 894.140      -60.3 
 894.363      -58.9 
 894.587      -60.8 
 894.810      -58.2 
 895.033      -59.4 
 895.257      -60.7 
 895.480      -61.6 
 895.703      -61.7 
 895.926      -57.8 
 896.150      -56.8 
 896.373      -58.0 
 896.596      -57.7 
 896.820      -57.1 
 897.043      -57.8 
 897.266      -59.7 
 897.490      -67.1 
 897.713      -68.6 
 897.936      -66.3 
 898.159      -65.0 
 898.383      -60.9 
 898.606      -55.4 
 898.829      -50.7 
 899.053      -55.4 
 899.276      -54.4 
 899.499      -58.2 
 899.723      -58.0 
 899.946      -55.2 
 900.169      -56.7 
 900.392      -56.4 
 900.616      -56.4 
 900.839      -58.0 
 901.062      -54.6 
 901.286      -52.4 
 901.509      -57.8 
 901.732      -62.8 
 901.956      -60.3 
 902.179      -56.9 
 902.402      -59.7 
 902.625      -62.4 
 902.849      -64.8 
 903.072      -62.3 
 903.295      -57.1 
 903.519      -59.3 
 903.742      -52.7 
 903.965      -48.8 
 904.189      -47.9 
 904.412      -56.2 
 904.635      -57.3 
 904.858      -56.4 
 905.082      -54.5 
 905.305      -49.1 
 905.528      -50.0 
 905.752      -50.9 
 905.975      -54.5 
 906.198      -58.8 
 906.421      -58.2 
 906.645      -63.4 
 906.868      -65.1 
 907.091      -64.9 
 907.315      -58.4 
 907.538      -52.6 
 907.761      -54.0 
 907.985      -56.5 
 908.208      -59.6 
 908.431      -63.2 
 908.654      -66.2 
 908.878      -60.8 
 909.101      -59.8 
 909.324      -59.9 
 909.548      -63.5 
 909.771      -67.2 
 909.994      -56.7 
 910.218      -51.8 
 910.441      -57.8 
 910.664      -59.1 
 910.887      -56.4 
 911.111      -53.0 
 911.334      -58.5 
 911.557      -55.4 
 911.781      -58.4 
 912.004      -56.3 
 912.227      -56.8 
 912.451      -54.9 
 912.674      -54.0 
 912.897      -50.3 
 913.120      -56.9 
 913.344      -53.6 
 913.567      -56.8 
 913.790      -65.4 
 914.014      -63.5 
 914.237      -63.2 
 914.460      -64.4 
 914.683      -57.3 
 914.907      -58.6 
 915.130      -58.8 
 915.353      -62.4 
 915.577      -58.6 
 915.800      -50.9 
 916.023      -54.9 
 916.247      -58.1 
 916.470      -65.0 
 916.693      -64.4 
 916.916      -60.7 
 917.140      -57.0 
 917.363      -54.6 
 917.586      -57.4 
 917.810      -56.7 
 918.033      -57.6 
 918.256      -56.6 
 918.480      -62.0 
 918.703      -65.7 
 918.926      -61.0 
 919.149      -58.1 
 919.373      -59.1 
 919.596      -56.6 
 919.819      -60.7 
 920.043      -55.4 
 920.266      -55.2 
 920.489      -60.4 
 920.713      -63.7 
 920.936      -62.2 
 921.159      -60.3 
 921.382      -62.1 
 921.606      -60.6 
 921.829      -61.8 
 922.052      -64.8 
 922.276      -63.4 
 922.499      -64.4 
 922.722      -62.3 
 922.945      -61.5 
 923.169      -63.7 
 923.392      -66.9 
 923.615      -62.2 
 923.839      -59.7 
 924.062      -62.4 
 924.285      -59.0 
 924.509      -58.2 
 924.732      -59.3 
 924.955      -55.6 
 925.178      -52.0 
 925.402      -57.0 
 925.625      -61.1 
 925.848      -58.0 
 926.072      -58.1 
 926.295      -62.8 
 926.518      -60.2 
 926.742      -59.0 
 926.965      -62.7 
 927.188      -65.6 
 927.411      -66.6 
 927.635      -69.0 
 927.858      -59.6 
 928.081      -67.2 
 928.305      -69.8 
 928.528      -64.1 
 928.751      -57.6 
 928.975      -53.6 
 929.198      -53.4 
 929.421      -57.0 
 929.644      -58.5 
 929.868      -60.7 
 930.091      -58.3 
 930.314      -56.3 
 930.538      -55.9 
 930.761      -57.4 
 930.984      -52.4 
 931.207      -48.3 
 931.431      -52.2 
 931.654      -61.5 
 931.877      -70.2 
 932.101      -67.8 
 932.324      -62.9 
 932.547      -62.7 
 932.771      -57.4 
 932.994      -63.9 
 933.217      -65.7 
 933.440      -61.2 
 933.664      -57.3 
 933.887      -55.3 
 934.110      -53.7 
 934.334      -47.4 
 934.557      -56.4 
 934.780      -63.1 
 935.004      -65.4 
 935.227      -58.7 
 935.450      -52.5 
 935.673      -52.6 
 935.897      -53.4 
 936.120      -54.9 
 936.343      -55.9 
 936.567      -54.8 
 936.790      -48.1 
 937.013      -51.8 
 937.237      -57.5 
 937.460      -57.3 
 937.683      -51.2 
 937.906      -49.2 
 938.130      -52.6 
 938.353      -55.4 
 938.576      -57.0 
 938.800      -58.7 
 939.023      -59.0 
 939.246      -59.2 
 939.469      -58.0 
 939.693      -56.5 
 939.916      -57.7 
 940.139      -53.0 
 940.363      -53.2 
 940.586      -56.2 
 940.809      -58.8 
 941.033      -55.8 
 941.256      -56.1 
 941.479      -52.1 
 941.702      -50.6 
 941.926      -50.5 
 942.149      -50.2 
 942.372      -52.8 
 942.596      -46.8 
 942.819      -46.8 
 943.042      -46.7 
 943.266      -50.6 
 943.489      -54.2 
 943.712      -55.2 
 943.935      -59.8 
 944.159      -61.9 
 944.382      -62.1 
 944.605      -64.7 
 944.829      -57.8 
 945.052      -55.3 
 945.275      -63.6 
 945.499      -66.0 
 945.722      -62.4 
 945.945      -60.5 
 946.168      -64.4 
 946.392      -56.7 
 946.615      -54.6 
 946.838      -55.3 
 947.062      -51.2 
 947.285      -54.1 
 947.508      -61.8 
 947.731      -60.1 
 947.955      -55.3 
 948.178      -57.1 
 948.401      -54.4 
 948.625      -58.6 
 948.848      -65.3 
 949.071      -67.5 
 949.295      -66.8 
 949.518      -63.9 
 949.741      -63.0 
 949.964      -62.0 
 950.188      -62.7 
 950.411      -62.1 
 950.634      -64.9 
 950.858      -68.7 
 951.081      -69.5 
 951.304      -64.2 
 951.528      -62.8 
 951.751      -64.5 
 951.974      -63.6 
 952.197      -64.9 
 952.421      -61.8 
 952.644      -62.7 
 952.867      -55.1 
 953.091      -50.4 
 953.314      -54.8 
 953.537      -57.2 
 953.761      -59.0 
 953.984      -65.0 
 954.207      -61.5 
 954.430      -56.3 
 954.654      -52.5 
 954.877      -57.1 
 955.100      -63.4 
 955.324      -60.3 
 955.547      -58.5 
 955.770      -57.1 
 955.993      -57.1 
 956.217      -56.3 
 956.440      -53.5 
 956.663      -53.4 
 956.887      -55.6 
 957.110      -62.9 
 957.333      -63.3 
 957.557      -56.0 
 957.780      -52.8 
 958.003      -55.6 
 958.226      -60.5 
 958.450      -61.4 
 958.673      -59.8 
 958.896      -57.1 
 959.120      -53.9 
 959.343      -54.7 
 959.566      -59.7 
 959.790      -58.8 
 960.013      -61.9 
 960.236      -61.6 
 960.459      -55.2 
 960.683      -54.1 
 960.906      -57.3 
 961.129      -55.9 
 961.353      -57.4 
 961.576      -60.7 
 961.799      -58.7 
 962.023      -57.0 
 962.246      -59.5 
 962.469      -57.1 
 962.692      -51.5 
 962.916      -56.6 
 963.139      -61.0 
 963.362      -60.1 
 963.586      -60.4 
 963.809      -61.6 
 964.032      -61.2 
 964.255      -64.5 
 964.479      -61.8 
 964.702      -60.9 
 964.925      -57.3 
 965.149      -49.7 
 965.372      -53.9 
 965.595      -55.9 
 965.819      -57.4 
 966.042      -56.9 
 966.265      -54.9 
 966.488      -57.1 
 966.712      -56.2 
 966.935      -63.3 
 967.158      -55.4 
 967.382      -55.7 
 967.605      -55.9 
 967.828      -53.6 
 968.052      -57.0 
 968.275      -57.1 
 968.498      -55.2 
 968.721      -47.3 
 968.945      -53.2 
 969.168      -56.8 
 969.391      -54.7 
 969.615      -52.4 
 969.838      -54.3 
 970.061      -56.5 
 970.285      -60.0 
 970.508      -50.9 
 970.731      -49.7 
 970.954      -49.5 
 971.178      -47.4 
 971.401      -41.5 
 971.624      -50.1 
 971.848      -59.6 
 972.071      -61.7 
 972.294      -59.3 
 972.517      -54.0 
 972.741      -51.1 
 972.964      -51.7 
 973.187      -55.5 
 973.411      -58.0 
 973.634      -52.7 
 973.857      -49.5 
 974.081      -48.9 
 974.304      -49.4 
 974.527      -49.5 
 974.750      -51.1 
 974.974      -55.3 
 975.197      -56.3 
 975.420      -53.3 
 975.644      -51.7 
 975.867      -55.5 
 976.090      -62.4 
 976.314      -54.7 
 976.537      -56.4 
 976.760      -58.5 
 976.983      -53.1 
 977.207      -48.5 
 977.430      -53.1 
 977.653      -52.7 
 977.877      -44.5 
 978.100      -43.9 
 978.323      -49.7 
 978.547      -51.4 
 978.770      -55.4 
 978.993      -53.9 
 979.216      -49.6 
 979.440      -49.3 
 979.663      -47.0 
 979.886      -48.5 
 980.110      -51.7 
 980.333      -51.4 
 980.556      -49.9 
 980.779      -49.1 
 981.003      -44.7 
 981.226      -49.9 
 981.449      -54.3 
 981.673      -50.8 
 981.896      -48.8 
 982.119      -50.4 
 982.343      -50.7 
 982.566      -50.3 
 982.789      -50.2 
 983.012      -51.6 
 983.236      -47.8 
 983.459      -46.0 
 983.682      -45.0 
 983.906      -48.3 
 984.129      -52.5 
 984.352      -48.6 
 984.576      -48.0 
 984.799      -50.4 
 985.022      -49.7 
 985.245      -43.2 
 985.469      -51.0 
 985.692      -55.0 
 985.915      -55.7 
 986.139      -56.4 
 986.362      -59.2 
 986.585      -63.1 
 986.809      -67.6 
 987.032      -72.3 
 987.255      -74.6 
 987.478      -65.4 
 987.702      -60.9 
 987.925      -63.8 
 988.148      -70.0 
 988.372      -67.1 
 988.595      -76.7 
 988.818      -82.4 
 989.041      -74.9 
 989.265      -75.2 
 989.488      -81.4 
 989.711      -80.6 
 989.935      -82.4 
 990.158      -82.1 
 990.381      -82.4 
 990.605      -80.6 
 990.828      -73.7 
 991.051      -75.0 
 991.274      -74.5 
 991.498      -69.2 
 991.721      -73.9 
 991.944      -74.5 
 992.168      -71.7 
 992.391      -72.7 
 992.614      -74.0 
 992.838      -69.3 
 993.061      -63.1 
 993.284      -56.3 
 993.507      -62.5 
 993.731      -58.7 
 993.954      -50.5 
 994.177      -50.3 
 994.401      -53.6 
 994.624      -55.1 
 994.847      -52.9 
 995.071      -60.5 
 995.294      -60.9 
 995.517      -56.0 
 995.740      -55.4 
 995.964      -61.1 
 996.187      -58.6 
 996.410      -55.9 
 996.634      -55.8 
 996.857      -58.3 
 997.080      -54.4 
 997.303      -52.7 
 997.527      -54.5 
 997.750      -54.1 
 997.973      -54.0 
 998.197      -55.0 
 998.420      -56.8 
 998.643      -57.5 
 998.867      -51.4 
 999.090      -52.5 
 999.313      -53.1 
 999.536      -58.8 
 999.760      -60.7 
 999.983      -62.9 
time:        1333.5 


