Date : Thu Jun 03 17:59:32 2021

3000ev

AES params
 Ep [eV] : 3000.0
 It [uA] : 0.40
 Fmod [kHz] : 2.2
 Amod [V] : 1.20
 SEM [V] : 2018
Lock-in params
 Sensitivity [mV] : 0.030
 Phase [deg] : 74.0
 Time const [ms] : 0.3
 Prefilter [ms] : 100.0

   Start-End(eV)  Res(meV)  ms/pnt  Rate(eV/s) Aver
1   1000-1800        223    300      0.744     1
Num of spectra : 1

1000.012      -56.5 
1000.235      -57.2 
1000.458      -58.3 
1000.682      -62.9 
1000.905      -55.5 
1001.128      -57.6 
1001.352      -52.9 
1001.575      -46.6 
1001.798      -51.3 
1002.021      -58.3 
1002.245      -59.1 
1002.468      -60.1 
1002.691      -56.6 
1002.915      -61.0 
1003.138      -57.5 
1003.361      -53.8 
1003.585      -53.2 
1003.808      -56.4 
1004.031      -55.4 
1004.254      -53.5 
1004.478      -48.3 
1004.701      -46.3 
1004.924      -55.3 
1005.148      -55.1 
1005.371      -49.8 
1005.594      -50.5 
1005.817      -52.5 
1006.041      -52.8 
1006.264      -46.8 
1006.487      -45.4 
1006.711      -52.8 
1006.934      -53.7 
1007.157      -57.5 
1007.381      -59.3 
1007.604      -56.4 
1007.827      -53.1 
1008.050      -56.5 
1008.274      -56.3 
1008.497      -52.1 
1008.720      -58.3 
1008.944      -57.3 
1009.167      -60.7 
1009.390      -60.2 
1009.614      -62.8 
1009.837      -63.3 
1010.060      -60.1 
1010.283      -56.3 
1010.507      -55.9 
1010.730      -50.9 
1010.953      -51.5 
1011.177      -48.8 
1011.400      -53.2 
1011.623      -57.4 
1011.847      -58.3 
1012.070      -62.3 
1012.293      -59.4 
1012.516      -55.7 
1012.740      -54.0 
1012.963      -61.3 
1013.186      -62.2 
1013.410      -55.7 
1013.633      -48.2 
1013.856      -48.9 
1014.079      -49.0 
1014.303      -57.4 
1014.526      -62.0 
1014.749      -52.9 
1014.973      -50.9 
1015.196      -49.9 
1015.419      -52.2 
1015.643      -54.2 
1015.866      -56.7 
1016.089      -57.7 
1016.312      -56.8 
1016.536      -54.9 
1016.759      -51.3 
1016.982      -55.3 
1017.206      -54.3 
1017.429      -58.9 
1017.652      -62.0 
1017.876      -60.6 
1018.099      -63.6 
1018.322      -63.8 
1018.545      -64.6 
1018.769      -55.5 
1018.992      -47.0 
1019.215      -48.7 
1019.439      -47.4 
1019.662      -50.0 
1019.885      -60.2 
1020.109      -53.3 
1020.332      -50.7 
1020.555      -61.0 
1020.778      -56.9 
1021.002      -46.7 
1021.225      -53.8 
1021.448      -50.7 
1021.672      -53.3 
1021.895      -50.9 
1022.118      -55.9 
1022.341      -63.7 
1022.565      -57.2 
1022.788      -52.8 
1023.011      -58.4 
1023.235      -59.3 
1023.458      -55.5 
1023.681      -50.0 
1023.905      -54.8 
1024.128      -53.6 
1024.351      -56.0 
1024.574      -58.5 
1024.798      -53.7 
1025.021      -54.2 
1025.244      -51.1 
1025.468      -55.1 
1025.691      -57.1 
1025.914      -56.5 
1026.138      -51.0 
1026.361      -51.9 
1026.584      -56.9 
1026.807      -57.0 
1027.031      -54.3 
1027.254      -58.0 
1027.477      -58.4 
1027.701      -60.7 
1027.924      -59.4 
1028.147      -52.8 
1028.371      -53.7 
1028.594      -53.7 
1028.817      -59.1 
1029.040      -59.2 
1029.264      -61.3 
1029.487      -60.2 
1029.710      -56.5 
1029.934      -54.5 
1030.157      -58.7 
1030.380      -57.1 
1030.603      -54.5 
1030.827      -58.1 
1031.050      -53.2 
1031.273      -48.5 
1031.497      -49.9 
1031.720      -55.7 
1031.943      -59.2 
1032.167      -57.6 
1032.390      -54.0 
1032.613      -56.0 
1032.836      -60.1 
1033.060      -53.6 
1033.283      -56.1 
1033.506      -53.8 
1033.730      -52.9 
1033.953      -49.6 
1034.176      -55.4 
1034.400      -57.6 
1034.623      -60.9 
1034.846      -65.4 
1035.069      -61.4 
1035.293      -58.5 
1035.516      -59.5 
1035.739      -55.7 
1035.963      -58.1 
1036.186      -52.6 
1036.409      -49.2 
1036.633      -49.1 
1036.856      -58.3 
1037.079      -63.4 
1037.302      -64.9 
1037.526      -62.4 
1037.749      -58.3 
1037.972      -61.3 
1038.196      -58.3 
1038.419      -57.2 
1038.642      -49.2 
1038.865      -45.1 
1039.089      -43.9 
1039.312      -47.4 
1039.535      -51.6 
1039.759      -53.2 
1039.982      -55.8 
1040.205      -55.1 
1040.429      -55.4 
1040.652      -55.6 
1040.875      -53.3 
1041.098      -57.0 
1041.322      -55.1 
1041.545      -57.5 
1041.768      -54.1 
1041.992      -50.9 
1042.215      -50.9 
1042.438      -52.8 
1042.662      -51.6 
1042.885      -58.5 
1043.108      -61.1 
1043.331      -66.0 
1043.555      -63.0 
1043.778      -59.4 
1044.001      -61.1 
1044.225      -59.2 
1044.448      -58.6 
1044.671      -50.9 
1044.895      -60.3 
1045.118      -64.1 
1045.341      -58.4 
1045.564      -57.1 
1045.788      -50.4 
1046.011      -45.5 
1046.234      -50.7 
1046.458      -54.1 
1046.681      -54.5 
1046.904      -51.5 
1047.127      -50.5 
1047.351      -47.6 
1047.574      -56.5 
1047.797      -57.4 
1048.021      -59.7 
1048.244      -53.6 
1048.467      -52.1 
1048.691      -52.2 
1048.914      -54.5 
1049.137      -52.9 
1049.360      -51.3 
1049.584      -52.1 
1049.807      -53.4 
1050.030      -51.0 
1050.254      -50.2 
1050.477      -55.0 
1050.700      -55.5 
1050.924      -47.6 
1051.147      -49.8 
1051.370      -53.5 
1051.593      -55.6 
1051.817      -55.7 
1052.040      -56.2 
1052.263      -49.4 
1052.487      -51.6 
1052.710      -43.8 
1052.933      -44.8 
1053.157      -43.8 
1053.380      -44.2 
1053.603      -46.8 
1053.826      -50.3 
1054.050      -51.4 
1054.273      -52.2 
1054.496      -58.5 
1054.720      -61.5 
1054.943      -57.2 
1055.166      -51.9 
1055.389      -51.8 
1055.613      -52.3 
1055.836      -55.5 
1056.059      -55.1 
1056.283      -57.8 
1056.506      -57.1 
1056.729      -47.1 
1056.953      -48.5 
1057.176      -49.4 
1057.399      -44.6 
1057.622      -44.0 
1057.846      -46.7 
1058.069      -48.2 
1058.292      -56.2 
1058.516      -60.6 
1058.739      -57.8 
1058.962      -55.3 
1059.186      -51.0 
1059.409      -50.9 
1059.632      -52.5 
1059.855      -47.6 
1060.079      -49.8 
1060.302      -55.6 
1060.525      -54.3 
1060.749      -56.5 
1060.972      -51.1 
1061.195      -49.5 
1061.419      -55.6 
1061.642      -58.1 
1061.865      -53.4 
1062.088      -56.5 
1062.312      -56.7 
1062.535      -52.1 
1062.758      -49.1 
1062.982      -54.0 
1063.205      -51.5 
1063.428      -50.7 
1063.651      -47.0 
1063.875      -49.5 
1064.098      -53.6 
1064.321      -57.3 
1064.545      -59.0 
1064.768      -59.7 
1064.991      -58.6 
1065.215      -54.2 
1065.438      -48.1 
1065.661      -49.3 
1065.884      -50.9 
1066.108      -50.6 
1066.331      -54.2 
1066.554      -47.0 
1066.778      -46.0 
1067.001      -48.0 
1067.224      -50.1 
1067.448      -54.1 
1067.671      -57.7 
1067.894      -52.8 
1068.117      -47.4 
1068.341      -61.8 
1068.564      -59.7 
1068.787      -56.0 
1069.011      -49.9 
1069.234      -48.2 
1069.457      -51.1 
1069.681      -56.2 
1069.904      -54.9 
1070.127      -51.3 
1070.350      -55.8 
1070.574      -52.1 
1070.797      -54.1 
1071.020      -57.7 
1071.244      -57.7 
1071.467      -53.9 
1071.690      -55.3 
1071.913      -55.1 
1072.137      -45.4 
1072.360      -43.0 
1072.583      -47.1 
1072.807      -52.0 
1073.030      -52.8 
1073.253      -55.2 
1073.477      -47.6 
1073.700      -47.5 
1073.923      -47.9 
1074.146      -51.3 
1074.370      -50.7 
1074.593      -55.4 
1074.816      -51.9 
1075.040      -54.6 
1075.263      -51.8 
1075.486      -47.9 
1075.710      -46.1 
1075.933      -48.8 
1076.156      -55.4 
1076.379      -56.1 
1076.603      -49.9 
1076.826      -45.7 
1077.049      -42.8 
1077.273      -44.0 
1077.496      -52.2 
1077.719      -53.0 
1077.943      -52.3 
1078.166      -55.9 
1078.389      -55.9 
1078.612      -53.6 
1078.836      -54.5 
1079.059      -50.8 
1079.282      -49.3 
1079.506      -47.6 
1079.729      -48.6 
1079.952      -56.2 
1080.175      -55.0 
1080.399      -54.4 
1080.622      -52.2 
1080.845      -54.3 
1081.069      -53.0 
1081.292      -56.1 
1081.515      -55.3 
1081.739      -58.5 
1081.962      -55.7 
1082.185      -55.0 
1082.408      -53.6 
1082.632      -54.3 
1082.855      -56.6 
1083.078      -56.3 
1083.302      -49.3 
1083.525      -52.0 
1083.748      -51.4 
1083.972      -55.6 
1084.195      -50.5 
1084.418      -49.9 
1084.641      -46.7 
1084.865      -52.2 
1085.088      -52.0 
1085.311      -48.8 
1085.535      -47.1 
1085.758      -58.5 
1085.981      -63.0 
1086.205      -63.4 
1086.428      -58.4 
1086.651      -54.5 
1086.874      -58.6 
1087.098      -54.8 
1087.321      -58.0 
1087.544      -54.3 
1087.768      -58.1 
1087.991      -55.9 
1088.214      -51.2 
1088.437      -52.3 
1088.661      -48.2 
1088.884      -55.4 
1089.107      -54.2 
1089.331      -54.8 
1089.554      -60.6 
1089.777      -55.0 
1090.001      -55.2 
1090.224      -53.2 
1090.447      -58.1 
1090.670      -55.1 
1090.894      -51.6 
1091.117      -47.8 
1091.340      -43.4 
1091.564      -49.0 
1091.787      -54.0 
1092.010      -53.3 
1092.234      -48.8 
1092.457      -50.2 
1092.680      -53.5 
1092.903      -49.8 
1093.127      -50.1 
1093.350      -48.7 
1093.573      -51.6 
1093.797      -53.4 
1094.020      -58.3 
1094.243      -51.4 
1094.467      -49.7 
1094.690      -52.0 
1094.913      -51.9 
1095.136      -51.5 
1095.360      -57.4 
1095.583      -54.0 
1095.806      -52.1 
1096.030      -55.3 
1096.253      -54.9 
1096.476      -53.2 
1096.699      -54.9 
1096.923      -54.6 
1097.146      -55.3 
1097.369      -51.7 
1097.593      -49.5 
1097.816      -49.4 
1098.039      -50.1 
1098.263      -48.4 
1098.486      -48.0 
1098.709      -50.7 
1098.932      -49.3 
1099.156      -44.6 
1099.379      -47.0 
1099.602      -44.1 
1099.826      -42.5 
1100.049      -38.8 
1100.272      -39.8 
1100.496      -43.2 
1100.719      -47.4 
1100.942      -50.6 
1101.165      -53.8 
1101.389      -54.3 
1101.612      -53.8 
1101.835      -51.9 
1102.059      -53.8 
1102.282      -53.5 
1102.505      -51.4 
1102.729      -55.9 
1102.952      -51.9 
1103.175      -53.2 
1103.398      -48.5 
1103.622      -49.0 
1103.845      -51.4 
1104.068      -54.3 
1104.292      -56.0 
1104.515      -57.2 
1104.738      -52.3 
1104.962      -52.2 
1105.185      -55.9 
1105.408      -55.5 
1105.631      -49.8 
1105.855      -48.2 
1106.078      -48.9 
1106.301      -51.0 
1106.525      -63.7 
1106.748      -60.1 
1106.971      -54.3 
1107.194      -55.7 
1107.418      -57.5 
1107.641      -46.5 
1107.864      -43.0 
1108.088      -52.2 
1108.311      -50.1 
1108.534      -53.1 
1108.758      -52.3 
1108.981      -51.1 
1109.204      -56.8 
1109.427      -58.6 
1109.651      -58.3 
1109.874      -58.3 
1110.097      -57.8 
1110.321      -58.5 
1110.544      -63.0 
1110.767      -58.2 
1110.991      -56.1 
1111.214      -55.3 
1111.437      -49.4 
1111.660      -52.5 
1111.884      -55.4 
1112.107      -59.1 
1112.330      -54.0 
1112.554      -50.6 
1112.777      -54.4 
1113.000      -48.7 
1113.224      -48.6 
1113.447      -44.7 
1113.670      -49.2 
1113.893      -53.2 
1114.117      -55.9 
1114.340      -52.2 
1114.563      -53.2 
1114.787      -52.7 
1115.010      -54.9 
1115.233      -52.2 
1115.456      -58.1 
1115.680      -61.1 
1115.903      -56.3 
1116.126      -54.1 
1116.350      -53.8 
1116.573      -47.0 
1116.796      -46.7 
1117.020      -50.9 
1117.243      -55.5 
1117.466      -49.6 
1117.689      -48.0 
1117.913      -51.9 
1118.136      -50.4 
1118.359      -46.8 
1118.583      -48.6 
1118.806      -53.6 
1119.029      -52.8 
1119.253      -51.1 
1119.476      -50.1 
1119.699      -47.1 
1119.922      -55.3 
1120.146      -60.2 
1120.369      -56.8 
1120.592      -56.2 
1120.816      -60.1 
1121.039      -60.5 
1121.262      -58.7 
1121.486      -54.3 
1121.709      -46.2 
1121.932      -48.9 
1122.155      -53.0 
1122.379      -55.0 
1122.602      -54.7 
1122.825      -54.2 
1123.049      -56.1 
1123.272      -55.6 
1123.495      -57.9 
1123.718      -65.8 
1123.942      -68.9 
1124.165      -70.1 
1124.388      -64.8 
1124.612      -55.1 
1124.835      -55.8 
1125.058      -57.1 
1125.282      -59.0 
1125.505      -53.7 
1125.728      -51.4 
1125.951      -59.2 
1126.175      -58.0 
1126.398      -48.9 
1126.621      -47.1 
1126.845      -53.9 
1127.068      -50.9 
1127.291      -53.0 
1127.515      -53.6 
1127.738      -60.6 
1127.961      -64.4 
1128.184      -60.6 
1128.408      -56.5 
1128.631      -49.6 
1128.854      -47.4 
1129.078      -47.1 
1129.301      -55.9 
1129.524      -53.6 
1129.748      -55.0 
1129.971      -62.0 
1130.194      -64.3 
1130.417      -57.1 
1130.641      -49.2 
1130.864      -54.5 
1131.087      -55.5 
1131.311      -57.7 
1131.534      -53.1 
1131.757      -45.8 
1131.980      -47.8 
1132.204      -45.6 
1132.427      -42.8 
1132.650      -45.9 
1132.874      -49.7 
1133.097      -51.3 
1133.320      -48.7 
1133.544      -43.2 
1133.767      -47.1 
1133.990      -50.0 
1134.213      -51.2 
1134.437      -48.1 
1134.660      -50.6 
1134.883      -58.7 
1135.107      -64.2 
1135.330      -59.3 
1135.553      -50.8 
1135.777      -53.6 
1136.000      -54.6 
1136.223      -50.2 
1136.446      -48.5 
1136.670      -44.6 
1136.893      -46.0 
1137.116      -56.3 
1137.340      -63.6 
1137.563      -60.6 
1137.786      -51.6 
1138.010      -52.2 
1138.233      -51.4 
1138.456      -51.9 
1138.679      -56.7 
1138.903      -54.1 
1139.126      -46.6 
1139.349      -44.6 
1139.573      -51.0 
1139.796      -58.5 
1140.019      -58.7 
1140.242      -53.3 
1140.466      -56.1 
1140.689      -58.1 
1140.912      -53.1 
1141.136      -45.0 
1141.359      -43.5 
1141.582      -44.1 
1141.806      -45.2 
1142.029      -47.8 
1142.252      -50.9 
1142.475      -47.0 
1142.699      -51.6 
1142.922      -55.5 
1143.145      -49.8 
1143.369      -50.2 
1143.592      -54.0 
1143.815      -50.8 
1144.039      -52.6 
1144.262      -49.0 
1144.485      -49.9 
1144.708      -48.8 
1144.932      -54.7 
1145.155      -57.1 
1145.378      -54.1 
1145.602      -56.7 
1145.825      -57.5 
1146.048      -56.9 
1146.272      -54.4 
1146.495      -45.1 
1146.718      -45.2 
1146.941      -45.3 
1147.165      -47.4 
1147.388      -53.0 
1147.611      -49.6 
1147.835      -54.6 
1148.058      -53.4 
1148.281      -48.5 
1148.504      -46.9 
1148.728      -52.9 
1148.951      -50.8 
1149.174      -45.8 
1149.398      -49.3 
1149.621      -51.8 
1149.844      -45.2 
1150.068      -45.5 
1150.291      -54.7 
1150.514      -53.8 
1150.737      -47.8 
1150.961      -44.7 
1151.184      -44.4 
1151.407      -46.4 
1151.631      -49.6 
1151.854      -55.9 
1152.077      -52.4 
1152.301      -53.0 
1152.524      -50.9 
1152.747      -52.0 
1152.970      -57.3 
1153.194      -53.0 
1153.417      -50.3 
1153.640      -49.8 
1153.864      -48.4 
1154.087      -50.2 
1154.310      -50.8 
1154.534      -54.7 
1154.757      -54.5 
1154.980      -58.8 
1155.203      -52.7 
1155.427      -48.0 
1155.650      -52.4 
1155.873      -51.9 
1156.097      -47.7 
1156.320      -46.2 
1156.543      -51.3 
1156.766      -57.5 
1156.990      -51.8 
1157.213      -55.6 
1157.436      -49.8 
1157.660      -45.5 
1157.883      -42.3 
1158.106      -49.9 
1158.330      -53.4 
1158.553      -54.3 
1158.776      -45.8 
1158.999      -47.1 
1159.223      -53.0 
1159.446      -55.7 
1159.669      -51.9 
1159.893      -53.4 
1160.116      -56.6 
1160.339      -56.3 
1160.563      -55.6 
1160.786      -50.5 
1161.009      -51.9 
1161.232      -52.6 
1161.456      -55.7 
1161.679      -54.5 
1161.902      -51.4 
1162.126      -48.3 
1162.349      -48.9 
1162.572      -46.4 
1162.796      -50.4 
1163.019      -55.4 
1163.242      -45.9 
1163.465      -44.3 
1163.689      -44.3 
1163.912      -53.9 
1164.135      -51.7 
1164.359      -48.8 
1164.582      -47.2 
1164.805      -48.4 
1165.028      -41.8 
1165.252      -38.3 
1165.475      -41.6 
1165.698      -48.8 
1165.922      -45.2 
1166.145      -47.1 
1166.368      -46.0 
1166.592      -44.9 
1166.815      -47.6 
1167.038      -48.2 
1167.261      -49.9 
1167.485      -58.4 
1167.708      -57.9 
1167.931      -52.7 
1168.155      -51.2 
1168.378      -48.8 
1168.601      -40.8 
1168.825      -42.6 
1169.048      -45.9 
1169.271      -48.8 
1169.494      -55.1 
1169.718      -54.7 
1169.941      -48.5 
1170.164      -46.3 
1170.388      -47.0 
1170.611      -50.3 
1170.834      -43.1 
1171.058      -46.9 
1171.281      -55.9 
1171.504      -62.3 
1171.727      -52.7 
1171.951      -48.3 
1172.174      -49.0 
1172.397      -49.6 
1172.621      -48.3 
1172.844      -51.3 
1173.067      -49.3 
1173.290      -54.4 
1173.514      -55.3 
1173.737      -50.9 
1173.960      -52.4 
1174.184      -46.4 
1174.407      -50.4 
1174.630      -57.1 
1174.854      -56.4 
1175.077      -50.2 
1175.300      -52.0 
1175.523      -53.0 
1175.747      -51.9 
1175.970      -49.8 
1176.193      -50.2 
1176.417      -51.6 
1176.640      -50.9 
1176.863      -53.5 
1177.087      -52.7 
1177.310      -52.2 
1177.533      -50.4 
1177.756      -48.9 
1177.980      -55.4 
1178.203      -51.7 
1178.426      -47.3 
1178.650      -47.8 
1178.873      -52.1 
1179.096      -50.5 
1179.320      -49.6 
1179.543      -51.5 
1179.766      -49.7 
1179.989      -55.0 
1180.213      -58.0 
1180.436      -52.8 
1180.659      -45.1 
1180.883      -44.8 
1181.106      -53.3 
1181.329      -46.0 
1181.552      -40.4 
1181.776      -52.8 
1181.999      -53.5 
1182.222      -48.6 
1182.446      -45.6 
1182.669      -38.6 
1182.892      -45.5 
1183.116      -52.6 
1183.339      -49.9 
1183.562      -51.9 
1183.785      -51.9 
1184.009      -55.0 
1184.232      -56.1 
1184.455      -50.7 
1184.679      -45.8 
1184.902      -45.9 
1185.125      -51.6 
1185.349      -51.3 
1185.572      -56.4 
1185.795      -59.7 
1186.018      -58.3 
1186.242      -59.3 
1186.465      -53.0 
1186.688      -49.4 
1186.912      -50.3 
1187.135      -51.0 
1187.358      -52.4 
1187.582      -56.4 
1187.805      -53.2 
1188.028      -48.3 
1188.251      -47.7 
1188.475      -42.6 
1188.698      -42.0 
1188.921      -52.3 
1189.145      -52.8 
1189.368      -53.1 
1189.591      -49.4 
1189.814      -51.6 
1190.038      -53.6 
1190.261      -57.7 
1190.484      -52.6 
1190.708      -54.4 
1190.931      -54.1 
1191.154      -51.3 
1191.378      -50.7 
1191.601      -50.8 
1191.824      -54.7 
1192.047      -53.7 
1192.271      -50.1 
1192.494      -46.8 
1192.717      -43.0 
1192.941      -45.4 
1193.164      -46.5 
1193.387      -48.9 
1193.611      -45.3 
1193.834      -45.7 
1194.057      -49.0 
1194.280      -49.6 
1194.504      -51.2 
1194.727      -52.8 
1194.950      -49.8 
1195.174      -44.2 
1195.397      -48.5 
1195.620      -52.1 
1195.844      -53.8 
1196.067      -52.2 
1196.290      -51.9 
1196.513      -46.6 
1196.737      -47.2 
1196.960      -42.7 
1197.183      -39.2 
1197.407      -49.4 
1197.630      -50.5 
1197.853      -48.1 
1198.077      -51.3 
1198.300      -55.8 
1198.523      -55.4 
1198.746      -50.7 
1198.970      -55.3 
1199.193      -59.2 
1199.416      -55.6 
1199.640      -49.2 
1199.863      -42.8 
1200.086      -41.6 
1200.309      -49.8 
1200.533      -48.1 
1200.756      -42.6 
1200.979      -47.0 
1201.203      -43.7 
1201.426      -44.5 
1201.649      -41.5 
1201.873      -49.2 
1202.096      -50.1 
1202.319      -51.4 
1202.542      -58.7 
1202.766      -57.6 
1202.989      -54.6 
1203.212      -50.7 
1203.436      -49.9 
1203.659      -58.4 
1203.882      -64.1 
1204.106      -48.8 
1204.329      -48.4 
1204.552      -49.7 
1204.775      -39.0 
1204.999      -41.7 
1205.222      -46.3 
1205.445      -51.5 
1205.669      -56.8 
1205.892      -59.3 
1206.115      -52.8 
1206.339      -50.5 
1206.562      -52.3 
1206.785      -51.3 
1207.008      -34.5 
1207.232      -42.7 
1207.455      -45.3 
1207.678      -42.0 
1207.902      -45.5 
1208.125      -43.7 
1208.348      -41.3 
1208.571      -45.3 
1208.795      -45.1 
1209.018      -45.7 
1209.241      -43.3 
1209.465      -48.0 
1209.688      -54.1 
1209.911      -49.8 
1210.135      -47.8 
1210.358      -51.5 
1210.581      -48.3 
1210.804      -48.4 
1211.028      -56.8 
1211.251      -56.7 
1211.474      -50.9 
1211.698      -48.0 
1211.921      -53.2 
1212.144      -52.7 
1212.368      -49.4 
1212.591      -50.0 
1212.814      -49.1 
1213.037      -53.4 
1213.261      -47.7 
1213.484      -40.8 
1213.707      -37.2 
1213.931      -36.1 
1214.154      -45.7 
1214.377      -50.0 
1214.601      -48.7 
1214.824      -45.6 
1215.047      -49.9 
1215.270      -47.1 
1215.494      -49.4 
1215.717      -47.5 
1215.940      -45.3 
1216.164      -49.2 
1216.387      -50.2 
1216.610      -57.0 
1216.833      -55.8 
1217.057      -51.7 
1217.280      -43.9 
1217.503      -40.8 
1217.727      -50.1 
1217.950      -48.1 
1218.173      -48.0 
1218.397      -49.3 
1218.620      -50.4 
1218.843      -51.1 
1219.066      -49.7 
1219.290      -54.2 
1219.513      -54.0 
1219.736      -47.0 
1219.960      -44.6 
1220.183      -45.4 
1220.406      -44.1 
1220.630      -45.7 
1220.853      -44.4 
1221.076      -43.7 
1221.299      -47.1 
1221.523      -44.8 
1221.746      -44.1 
1221.969      -46.4 
1222.193      -48.9 
1222.416      -48.4 
1222.639      -46.0 
1222.863      -50.5 
1223.086      -53.8 
1223.309      -48.2 
1223.532      -46.3 
1223.756      -45.3 
1223.979      -49.6 
1224.202      -47.4 
1224.426      -41.0 
1224.649      -44.2 
1224.872      -52.6 
1225.095      -57.7 
1225.319      -49.0 
1225.542      -49.0 
1225.765      -54.5 
1225.989      -47.7 
1226.212      -39.2 
1226.435      -41.5 
1226.659      -41.7 
1226.882      -43.6 
1227.105      -42.8 
1227.328      -44.8 
1227.552      -40.3 
1227.775      -34.9 
1227.998      -39.1 
1228.222      -43.1 
1228.445      -47.5 
1228.668      -43.9 
1228.892      -43.2 
1229.115      -48.2 
1229.338      -49.2 
1229.561      -46.4 
1229.785      -48.3 
1230.008      -49.1 
1230.231      -47.4 
1230.455      -46.1 
1230.678      -47.6 
1230.901      -50.8 
1231.125      -50.5 
1231.348      -47.0 
1231.571      -47.0 
1231.794      -50.3 
1232.018      -51.1 
1232.241      -43.9 
1232.464      -42.5 
1232.688      -49.6 
1232.911      -46.3 
1233.134      -43.1 
1233.357      -50.5 
1233.581      -57.2 
1233.804      -52.4 
1234.027      -50.9 
1234.251      -57.4 
1234.474      -52.3 
1234.697      -48.6 
1234.921      -46.6 
1235.144      -42.3 
1235.367      -44.9 
1235.590      -46.1 
1235.814      -48.7 
1236.037      -44.4 
1236.260      -48.7 
1236.484      -47.3 
1236.707      -46.4 
1236.930      -43.5 
1237.154      -42.7 
1237.377      -42.9 
1237.600      -43.5 
1237.823      -43.5 
1238.047      -46.0 
1238.270      -47.8 
1238.493      -48.4 
1238.717      -45.7 
1238.940      -40.6 
1239.163      -40.9 
1239.387      -42.9 
1239.610      -39.7 
1239.833      -53.9 
1240.056      -56.5 
1240.280      -54.3 
1240.503      -47.0 
1240.726      -49.1 
1240.950      -55.5 
1241.173      -46.4 
1241.396      -49.9 
1241.619      -45.5 
1241.843      -47.2 
1242.066      -47.6 
1242.289      -49.1 
1242.513      -44.5 
1242.736      -50.2 
1242.959      -53.1 
1243.183      -59.1 
1243.406      -54.4 
1243.629      -47.5 
1243.852      -48.2 
1244.076      -43.7 
1244.299      -43.3 
1244.522      -43.4 
1244.746      -50.2 
1244.969      -53.4 
1245.192      -55.0 
1245.416      -57.2 
1245.639      -47.6 
1245.862      -41.0 
1246.085      -44.0 
1246.309      -41.8 
1246.532      -43.4 
1246.755      -47.0 
1246.979      -48.6 
1247.202      -56.5 
1247.425      -55.7 
1247.649      -54.2 
1247.872      -59.6 
1248.095      -51.6 
1248.318      -44.0 
1248.542      -39.2 
1248.765      -39.5 
1248.988      -46.0 
1249.212      -55.9 
1249.435      -52.1 
1249.658      -45.3 
1249.881      -40.5 
1250.105      -48.5 
1250.328      -53.4 
1250.551      -52.0 
1250.775      -43.3 
1250.998      -48.3 
1251.221      -50.1 
1251.445      -42.6 
1251.668      -44.4 
1251.891      -41.8 
1252.114      -43.9 
1252.338      -42.6 
1252.561      -42.2 
1252.784      -41.7 
1253.008      -41.9 
1253.231      -46.4 
1253.454      -51.7 
1253.678      -56.0 
1253.901      -53.1 
1254.124      -45.2 
1254.347      -44.4 
1254.571      -38.3 
1254.794      -37.1 
1255.017      -42.0 
1255.241      -45.8 
1255.464      -41.2 
1255.687      -41.5 
1255.911      -47.6 
1256.134      -49.0 
1256.357      -47.1 
1256.580      -45.8 
1256.804      -44.7 
1257.027      -47.9 
1257.250      -50.6 
1257.474      -53.7 
1257.697      -49.5 
1257.920      -46.5 
1258.143      -48.9 
1258.367      -49.0 
1258.590      -48.4 
1258.813      -48.1 
1259.037      -42.6 
1259.260      -42.8 
1259.483      -41.5 
1259.707      -44.9 
1259.930      -51.2 
1260.153      -46.4 
1260.376      -49.2 
1260.600      -44.0 
1260.823      -35.2 
1261.046      -37.5 
1261.270      -40.1 
1261.493      -49.9 
1261.716      -48.3 
1261.940      -44.6 
1262.163      -50.2 
1262.386      -49.6 
1262.609      -51.2 
1262.833      -47.2 
1263.056      -51.1 
1263.279      -52.3 
1263.503      -52.1 
1263.726      -58.0 
1263.949      -56.3 
1264.173      -57.3 
1264.396      -55.8 
1264.619      -51.0 
1264.842      -52.6 
1265.066      -48.0 
1265.289      -47.4 
1265.512      -49.3 
1265.736      -49.2 
1265.959      -43.6 
1266.182      -35.8 
1266.405      -43.9 
1266.629      -48.2 
1266.852      -45.8 
1267.075      -40.1 
1267.299      -46.0 
1267.522      -44.6 
1267.745      -50.0 
1267.969      -58.7 
1268.192      -63.6 
1268.415      -53.5 
1268.638      -49.8 
1268.862      -43.2 
1269.085      -39.4 
1269.308      -41.4 
1269.532      -38.9 
1269.755      -45.3 
1269.978      -51.2 
1270.202      -55.8 
1270.425      -47.0 
1270.648      -48.3 
1270.871      -56.3 
1271.095      -52.9 
1271.318      -42.8 
1271.541      -40.7 
1271.765      -39.2 
1271.988      -45.7 
1272.211      -45.8 
1272.435      -48.9 
1272.658      -43.1 
1272.881      -44.1 
1273.104      -43.3 
1273.328      -40.0 
1273.551      -47.7 
1273.774      -45.0 
1273.998      -47.5 
1274.221      -43.5 
1274.444      -41.4 
1274.667      -42.9 
1274.891      -46.6 
1275.114      -50.6 
1275.337      -49.2 
1275.561      -54.4 
1275.784      -49.5 
1276.007      -43.7 
1276.231      -42.5 
1276.454      -40.2 
1276.677      -43.0 
1276.900      -39.9 
1277.124      -37.4 
1277.347      -41.2 
1277.570      -43.6 
1277.794      -47.0 
1278.017      -50.3 
1278.240      -50.9 
1278.464      -50.4 
1278.687      -51.1 
1278.910      -43.6 
1279.133      -40.4 
1279.357      -44.3 
1279.580      -41.2 
1279.803      -36.0 
1280.027      -40.8 
1280.250      -42.3 
1280.473      -46.7 
1280.697      -46.4 
1280.920      -47.5 
1281.143      -46.3 
1281.366      -46.6 
1281.590      -42.7 
1281.813      -42.3 
1282.036      -50.5 
1282.260      -50.2 
1282.483      -52.5 
1282.706      -55.6 
1282.929      -47.3 
1283.153      -48.3 
1283.376      -49.1 
1283.599      -41.3 
1283.823      -46.6 
1284.046      -51.5 
1284.269      -56.2 
1284.493      -53.6 
1284.716      -47.0 
1284.939      -51.1 
1285.162      -52.0 
1285.386      -46.1 
1285.609      -43.1 
1285.832      -47.7 
1286.056      -51.3 
1286.279      -47.6 
1286.502      -46.8 
1286.726      -43.6 
1286.949      -43.5 
1287.172      -33.3 
1287.395      -35.2 
1287.619      -36.0 
1287.842      -42.3 
1288.065      -47.7 
1288.289      -47.3 
1288.512      -45.4 
1288.735      -49.1 
1288.959      -44.3 
1289.182      -40.2 
1289.405      -38.1 
1289.628      -40.1 
1289.852      -42.4 
1290.075      -50.5 
1290.298      -53.3 
1290.522      -47.0 
1290.745      -38.6 
1290.968      -38.3 
1291.191      -40.4 
1291.415      -49.0 
1291.638      -53.9 
1291.861      -51.2 
1292.085      -51.0 
1292.308      -47.8 
1292.531      -45.8 
1292.755      -47.7 
1292.978      -41.3 
1293.201      -44.4 
1293.424      -49.8 
1293.648      -53.6 
1293.871      -55.4 
1294.094      -49.3 
1294.318      -49.8 
1294.541      -53.0 
1294.764      -48.9 
1294.988      -55.2 
1295.211      -56.6 
1295.434      -55.6 
1295.657      -53.1 
1295.881      -43.8 
1296.104      -45.0 
1296.327      -44.8 
1296.551      -38.4 
1296.774      -40.8 
1296.997      -36.2 
1297.221      -42.8 
1297.444      -49.8 
1297.667      -51.1 
1297.890      -46.9 
1298.114      -47.3 
1298.337      -51.2 
1298.560      -47.3 
1298.784      -44.9 
1299.007      -46.4 
1299.230      -51.8 
1299.454      -48.9 
1299.677      -43.1 
1299.900      -47.4 
1300.123      -42.0 
1300.347      -44.9 
1300.570      -47.7 
1300.793      -46.5 
1301.017      -52.6 
1301.240      -52.4 
1301.463      -50.6 
1301.686      -53.3 
1301.910      -51.1 
1302.133      -48.6 
1302.356      -45.4 
1302.580      -50.5 
1302.803      -49.3 
1303.026      -45.4 
1303.250      -40.8 
1303.473      -35.8 
1303.696      -46.4 
1303.919      -51.1 
1304.143      -45.6 
1304.366      -53.4 
1304.589      -57.2 
1304.813      -53.0 
1305.036      -50.6 
1305.259      -52.3 
1305.483      -56.7 
1305.706      -58.9 
1305.929      -58.3 
1306.152      -49.9 
1306.376      -46.8 
1306.599      -45.8 
1306.822      -38.0 
1307.046      -40.9 
1307.269      -53.1 
1307.492      -54.2 
1307.716      -53.9 
1307.939      -57.7 
1308.162      -54.8 
1308.385      -51.3 
1308.609      -48.7 
1308.832      -44.9 
1309.055      -43.4 
1309.279      -46.3 
1309.502      -46.3 
1309.725      -43.9 
1309.948      -43.8 
1310.172      -49.8 
1310.395      -56.9 
1310.618      -52.2 
1310.842      -55.9 
1311.065      -49.8 
1311.288      -42.4 
1311.512      -43.7 
1311.735      -44.8 
1311.958      -45.2 
1312.181      -42.3 
1312.405      -39.1 
1312.628      -37.7 
1312.851      -49.6 
1313.075      -57.3 
1313.298      -52.6 
1313.521      -46.8 
1313.745      -43.7 
1313.968      -43.8 
1314.191      -45.2 
1314.414      -43.4 
1314.638      -43.9 
1314.861      -44.8 
1315.084      -41.4 
1315.308      -44.9 
1315.531      -45.9 
1315.754      -43.8 
1315.978      -43.6 
1316.201      -45.9 
1316.424      -57.4 
1316.647      -56.6 
1316.871      -51.9 
1317.094      -50.4 
1317.317      -47.3 
1317.541      -49.3 
1317.764      -48.3 
1317.987      -49.8 
1318.210      -49.5 
1318.434      -49.1 
1318.657      -53.9 
1318.880      -49.5 
1319.104      -45.4 
1319.327      -48.7 
1319.550      -47.8 
1319.774      -44.7 
1319.997      -42.3 
1320.220      -47.4 
1320.443      -43.8 
1320.667      -45.5 
1320.890      -53.4 
1321.113      -52.5 
1321.337      -45.8 
1321.560      -41.2 
1321.783      -44.1 
1322.007      -38.6 
1322.230      -38.8 
1322.453      -38.0 
1322.676      -40.2 
1322.900      -38.1 
1323.123      -37.7 
1323.346      -41.7 
1323.570      -51.4 
1323.793      -55.3 
1324.016      -48.0 
1324.240      -40.7 
1324.463      -44.2 
1324.686      -44.0 
1324.909      -48.1 
1325.133      -55.5 
1325.356      -46.2 
1325.579      -44.9 
1325.803      -41.8 
1326.026      -47.2 
1326.249      -48.2 
1326.472      -47.7 
1326.696      -48.3 
1326.919      -46.9 
1327.142      -45.1 
1327.366      -51.2 
1327.589      -42.9 
1327.812      -49.8 
1328.036      -52.3 
1328.259      -45.2 
1328.482      -50.7 
1328.705      -48.9 
1328.929      -41.8 
1329.152      -52.7 
1329.375      -50.4 
1329.599      -53.5 
1329.822      -48.4 
1330.045      -43.0 
1330.269      -43.0 
1330.492      -42.5 
1330.715      -40.4 
1330.938      -39.4 
1331.162      -41.0 
1331.385      -38.7 
1331.608      -43.1 
1331.832      -40.7 
1332.055      -41.4 
1332.278      -40.8 
1332.502      -48.2 
1332.725      -47.4 
1332.948      -50.7 
1333.171      -45.5 
1333.395      -47.5 
1333.618      -44.6 
1333.841      -38.1 
1334.065      -44.3 
1334.288      -42.1 
1334.511      -42.5 
1334.734      -45.9 
1334.958      -46.2 
1335.181      -49.9 
1335.404      -49.8 
1335.628      -49.8 
1335.851      -39.1 
1336.074      -36.8 
1336.298      -39.6 
1336.521      -41.8 
1336.744      -45.1 
1336.967      -45.5 
1337.191      -41.0 
1337.414      -43.7 
1337.637      -46.8 
1337.861      -47.6 
1338.084      -50.3 
1338.307      -53.2 
1338.531      -57.9 
1338.754      -49.1 
1338.977      -38.4 
1339.200      -38.5 
1339.424      -41.8 
1339.647      -42.7 
1339.870      -45.7 
1340.094      -38.6 
1340.317      -47.0 
1340.540      -54.4 
1340.764      -50.8 
1340.987      -40.5 
1341.210      -33.9 
1341.433      -38.7 
1341.657      -37.2 
1341.880      -47.2 
1342.103      -53.4 
1342.327      -47.6 
1342.550      -50.0 
1342.773      -51.0 
1342.996      -53.5 
1343.220      -50.6 
1343.443      -49.7 
1343.666      -51.8 
1343.890      -52.7 
1344.113      -50.1 
1344.336      -46.2 
1344.560      -48.4 
1344.783      -48.9 
1345.006      -45.3 
1345.229      -48.8 
1345.453      -56.5 
1345.676      -61.9 
1345.899      -56.6 
1346.123      -48.8 
1346.346      -44.0 
1346.569      -41.7 
1346.793      -42.0 
1347.016      -42.6 
1347.239      -46.4 
1347.462      -47.4 
1347.686      -46.9 
1347.909      -54.0 
1348.132      -54.3 
1348.356      -54.0 
1348.579      -55.2 
1348.802      -53.9 
1349.026      -44.6 
1349.249      -48.5 
1349.472      -52.2 
1349.695      -53.3 
1349.919      -45.6 
1350.142      -43.4 
1350.365      -44.7 
1350.589      -46.7 
1350.812      -52.4 
1351.035      -50.7 
1351.258      -48.4 
1351.482      -40.0 
1351.705      -40.5 
1351.928      -36.6 
1352.152      -42.5 
1352.375      -37.9 
1352.598      -38.2 
1352.822      -51.0 
1353.045      -53.6 
1353.268      -52.5 
1353.491      -45.3 
1353.715      -44.4 
1353.938      -47.2 
1354.161      -45.5 
1354.385      -39.8 
1354.608      -42.4 
1354.831      -41.2 
1355.055      -39.4 
1355.278      -44.3 
1355.501      -45.8 
1355.724      -48.5 
1355.948      -45.1 
1356.171      -49.6 
1356.394      -50.1 
1356.618      -51.2 
1356.841      -47.3 
1357.064      -48.0 
1357.288      -49.3 
1357.511      -56.3 
1357.734      -48.9 
1357.957      -48.4 
1358.181      -42.7 
1358.404      -44.7 
1358.627      -49.1 
1358.851      -43.4 
1359.074      -45.1 
1359.297      -44.7 
1359.520      -39.4 
1359.744      -37.9 
1359.967      -43.2 
1360.190      -47.7 
1360.414      -45.7 
1360.637      -43.2 
1360.860      -49.9 
1361.084      -46.6 
1361.307      -51.3 
1361.530      -48.7 
1361.753      -50.7 
1361.977      -48.6 
1362.200      -42.7 
1362.423      -39.9 
1362.647      -44.6 
1362.870      -48.2 
1363.093      -46.5 
1363.317      -44.9 
1363.540      -50.2 
1363.763      -50.5 
1363.986      -52.4 
1364.210      -52.9 
1364.433      -46.7 
1364.656      -41.3 
1364.880      -43.8 
1365.103      -47.3 
1365.326      -38.5 
1365.550      -40.4 
1365.773      -45.8 
1365.996      -47.9 
1366.219      -48.1 
1366.443      -48.1 
1366.666      -48.2 
1366.889      -47.5 
1367.113      -44.9 
1367.336      -44.5 
1367.559      -39.1 
1367.782      -39.2 
1368.006      -39.8 
1368.229      -40.8 
1368.452      -46.1 
1368.676      -43.4 
1368.899      -51.7 
1369.122      -51.3 
1369.346      -45.4 
1369.569      -40.7 
1369.792      -39.3 
1370.015      -37.3 
1370.239      -35.4 
1370.462      -33.3 
1370.685      -38.1 
1370.909      -34.1 
1371.132      -39.1 
1371.355      -43.7 
1371.579      -46.7 
1371.802      -43.4 
1372.025      -42.2 
1372.248      -38.5 
1372.472      -36.7 
1372.695      -45.4 
1372.918      -47.1 
1373.142      -44.8 
1373.365      -39.6 
1373.588      -45.2 
1373.812      -51.8 
1374.035      -51.0 
1374.258      -47.3 
1374.481      -39.7 
1374.705      -39.7 
1374.928      -41.5 
1375.151      -43.7 
1375.375      -41.2 
1375.598      -37.9 
1375.821      -39.7 
1376.044      -39.2 
1376.268      -42.2 
1376.491      -52.6 
1376.714      -54.7 
1376.938      -53.2 
1377.161      -50.8 
1377.384      -54.4 
1377.608      -50.1 
1377.831      -42.1 
1378.054      -40.4 
1378.277      -34.8 
1378.501      -36.2 
1378.724      -33.0 
1378.947      -40.1 
1379.171      -50.0 
1379.394      -52.8 
1379.617      -54.9 
1379.841      -43.5 
1380.064      -46.2 
1380.287      -48.2 
1380.510      -47.3 
1380.734      -44.8 
1380.957      -45.9 
1381.180      -44.9 
1381.404      -44.2 
1381.627      -38.7 
1381.850      -41.4 
1382.074      -44.9 
1382.297      -49.2 
1382.520      -43.4 
1382.743      -41.7 
1382.967      -46.6 
1383.190      -47.6 
1383.413      -48.4 
1383.637      -46.0 
1383.860      -41.0 
1384.083      -49.4 
1384.306      -39.7 
1384.530      -39.5 
1384.753      -43.8 
1384.976      -44.1 
1385.200      -48.7 
1385.423      -48.6 
1385.646      -46.4 
1385.870      -45.9 
1386.093      -46.7 
1386.316      -48.4 
1386.539      -48.1 
1386.763      -46.7 
1386.986      -43.0 
1387.209      -39.1 
1387.433      -41.5 
1387.656      -50.3 
1387.879      -42.5 
1388.103      -39.8 
1388.326      -41.1 
1388.549      -45.9 
1388.772      -46.5 
1388.996      -48.4 
1389.219      -48.8 
1389.442      -42.9 
1389.666      -38.5 
1389.889      -42.0 
1390.112      -33.4 
1390.336      -33.9 
1390.559      -48.1 
1390.782      -48.5 
1391.005      -43.8 
1391.229      -41.8 
1391.452      -45.6 
1391.675      -44.3 
1391.899      -43.0 
1392.122      -44.5 
1392.345      -40.6 
1392.568      -43.5 
1392.792      -48.6 
1393.015      -51.4 
1393.238      -46.4 
1393.462      -38.3 
1393.685      -34.9 
1393.908      -44.0 
1394.132      -45.8 
1394.355      -47.3 
1394.578      -46.6 
1394.801      -45.1 
1395.025      -41.2 
1395.248      -34.5 
1395.471      -35.2 
1395.695      -39.4 
1395.918      -49.8 
1396.141      -45.2 
1396.365      -40.3 
1396.588      -49.4 
1396.811      -49.8 
1397.034      -47.0 
1397.258      -47.1 
1397.481      -42.5 
1397.704      -46.6 
1397.928      -38.4 
1398.151      -41.1 
1398.374      -35.2 
1398.598      -39.8 
1398.821      -42.9 
1399.044      -35.1 
1399.267      -38.7 
1399.491      -45.5 
1399.714      -40.7 
1399.937      -35.0 
1400.161      -34.8 
1400.384      -30.7 
1400.607      -34.0 
1400.831      -43.7 
1401.054      -41.5 
1401.277      -41.8 
1401.500      -38.1 
1401.724      -34.3 
1401.947      -31.5 
1402.170      -40.8 
1402.394      -42.7 
1402.617      -40.1 
1402.840      -38.3 
1403.063      -27.4 
1403.287      -34.8 
1403.510      -42.6 
1403.733      -47.0 
1403.957      -39.9 
1404.180      -33.2 
1404.403      -38.4 
1404.627      -43.8 
1404.850      -44.2 
1405.073      -43.5 
1405.296      -38.1 
1405.520      -30.9 
1405.743      -33.7 
1405.966      -37.8 
1406.190      -36.3 
1406.413      -33.0 
1406.636      -34.3 
1406.860      -32.6 
1407.083      -37.0 
1407.306      -36.4 
1407.529      -39.4 
1407.753      -46.6 
1407.976      -45.0 
1408.199      -42.5 
1408.423      -36.3 
1408.646      -38.9 
1408.869      -39.7 
1409.093      -35.7 
1409.316      -30.8 
1409.539      -31.5 
1409.762      -29.3 
1409.986      -30.6 
1410.209      -38.8 
1410.432      -45.3 
1410.656      -43.5 
1410.879      -36.4 
1411.102      -40.0 
1411.325      -47.6 
1411.549      -46.6 
1411.772      -34.4 
1411.995      -34.2 
1412.219      -42.1 
1412.442      -45.2 
1412.665      -46.2 
1412.889      -42.1 
1413.112      -43.7 
1413.335      -45.5 
1413.558      -42.3 
1413.782      -46.7 
1414.005      -49.4 
1414.228      -45.4 
1414.452      -38.1 
1414.675      -39.1 
1414.898      -41.5 
1415.122      -36.6 
1415.345      -43.4 
1415.568      -49.4 
1415.791      -51.6 
1416.015      -48.1 
1416.238      -47.6 
1416.461      -46.5 
1416.685      -45.1 
1416.908      -38.0 
1417.131      -30.9 
1417.355      -28.7 
1417.578      -30.6 
1417.801      -38.5 
1418.024      -42.7 
1418.248      -41.2 
1418.471      -35.6 
1418.694      -34.9 
1418.918      -38.1 
1419.141      -36.7 
1419.364      -36.3 
1419.587      -31.4 
1419.811      -33.1 
1420.034      -41.0 
1420.257      -41.3 
1420.481      -35.6 
1420.704      -37.4 
1420.927      -41.7 
1421.151      -43.7 
1421.374      -52.3 
1421.597      -46.0 
1421.820      -48.0 
1422.044      -48.5 
1422.267      -43.8 
1422.490      -39.0 
1422.714      -40.8 
1422.937      -45.5 
1423.160      -30.2 
1423.384      -30.1 
1423.607      -36.9 
1423.830      -44.3 
1424.053      -40.8 
1424.277      -42.0 
1424.500      -50.2 
1424.723      -48.4 
1424.947      -49.7 
1425.170      -49.0 
1425.393      -46.0 
1425.617      -41.4 
1425.840      -44.1 
1426.063      -44.9 
1426.286      -50.9 
1426.510      -49.2 
1426.733      -43.5 
1426.956      -42.4 
1427.180      -39.5 
1427.403      -38.6 
1427.626      -37.7 
1427.849      -38.9 
1428.073      -36.0 
1428.296      -34.5 
1428.519      -34.7 
1428.743      -40.3 
1428.966      -41.6 
1429.189      -36.0 
1429.413      -32.0 
1429.636      -37.0 
1429.859      -40.9 
1430.082      -36.6 
1430.306      -37.1 
1430.529      -35.8 
1430.752      -34.6 
1430.976      -39.9 
1431.199      -40.6 
1431.422      -38.3 
1431.646      -48.5 
1431.869      -49.1 
1432.092      -42.6 
1432.315      -38.8 
1432.539      -41.5 
1432.762      -48.6 
1432.985      -44.2 
1433.209      -35.2 
1433.432      -41.7 
1433.655      -49.6 
1433.879      -51.1 
1434.102      -47.2 
1434.325      -42.5 
1434.548      -45.2 
1434.772      -45.8 
1434.995      -47.6 
1435.218      -46.6 
1435.442      -41.9 
1435.665      -46.1 
1435.888      -53.2 
1436.111      -51.3 
1436.335      -42.8 
1436.558      -33.9 
1436.781      -32.5 
1437.005      -32.2 
1437.228      -44.3 
1437.451      -38.9 
1437.675      -39.8 
1437.898      -40.4 
1438.121      -45.6 
1438.344      -43.1 
1438.568      -45.4 
1438.791      -43.2 
1439.014      -41.9 
1439.238      -43.2 
1439.461      -41.1 
1439.684      -40.7 
1439.908      -45.3 
1440.131      -49.0 
1440.354      -43.8 
1440.577      -36.8 
1440.801      -36.4 
1441.024      -34.2 
1441.247      -42.5 
1441.471      -49.2 
1441.694      -46.9 
1441.917      -45.0 
1442.141      -44.7 
1442.364      -44.5 
1442.587      -44.1 
1442.810      -42.2 
1443.034      -38.3 
1443.257      -40.7 
1443.480      -46.9 
1443.704      -42.5 
1443.927      -43.4 
1444.150      -45.2 
1444.373      -43.5 
1444.597      -48.7 
1444.820      -50.2 
1445.043      -47.4 
1445.267      -41.9 
1445.490      -40.9 
1445.713      -40.5 
1445.937      -37.1 
1446.160      -43.5 
1446.383      -52.4 
1446.606      -48.8 
1446.830      -40.5 
1447.053      -41.3 
1447.276      -41.6 
1447.500      -49.0 
1447.723      -53.5 
1447.946      -45.8 
1448.170      -44.6 
1448.393      -42.1 
1448.616      -39.2 
1448.839      -30.3 
1449.063      -37.4 
1449.286      -46.0 
1449.509      -47.1 
1449.733      -49.4 
1449.956      -52.8 
1450.179      -47.8 
1450.403      -42.3 
1450.626      -37.1 
1450.849      -38.2 
1451.072      -33.2 
1451.296      -33.7 
1451.519      -37.1 
1451.742      -42.8 
1451.966      -41.6 
1452.189      -35.0 
1452.412      -38.3 
1452.635      -37.3 
1452.859      -43.3 
1453.082      -45.7 
1453.305      -47.6 
1453.529      -34.2 
1453.752      -37.7 
1453.975      -39.2 
1454.199      -39.0 
1454.422      -40.5 
1454.645      -36.0 
1454.868      -45.7 
1455.092      -52.6 
1455.315      -51.3 
1455.538      -41.1 
1455.762      -39.1 
1455.985      -38.6 
1456.208      -40.1 
1456.432      -35.2 
1456.655      -34.6 
1456.878      -41.1 
1457.101      -46.2 
1457.325      -50.4 
1457.548      -44.0 
1457.771      -37.0 
1457.995      -29.1 
1458.218      -39.0 
1458.441      -45.3 
1458.665      -42.9 
1458.888      -42.9 
1459.111      -38.3 
1459.334      -46.7 
1459.558      -44.7 
1459.781      -37.2 
1460.004      -40.1 
1460.228      -41.0 
1460.451      -46.2 
1460.674      -42.1 
1460.897      -41.4 
1461.121      -43.4 
1461.344      -38.8 
1461.567      -35.7 
1461.791      -42.0 
1462.014      -43.6 
1462.237      -42.3 
1462.461      -44.6 
1462.684      -44.7 
1462.907      -42.3 
1463.130      -39.5 
1463.354      -33.4 
1463.577      -38.6 
1463.800      -41.0 
1464.024      -38.8 
1464.247      -40.5 
1464.470      -37.4 
1464.694      -38.7 
1464.917      -40.8 
1465.140      -39.1 
1465.363      -34.7 
1465.587      -30.3 
1465.810      -29.3 
1466.033      -39.4 
1466.257      -44.1 
1466.480      -33.7 
1466.703      -34.5 
1466.927      -35.6 
1467.150      -39.5 
1467.373      -49.8 
1467.596      -47.3 
1467.820      -46.9 
1468.043      -44.9 
1468.266      -38.5 
1468.490      -32.3 
1468.713      -33.9 
1468.936      -33.3 
1469.159      -41.0 
1469.383      -47.8 
1469.606      -36.2 
1469.829      -36.9 
1470.053      -40.8 
1470.276      -39.5 
1470.499      -32.0 
1470.723      -31.5 
1470.946      -35.4 
1471.169      -36.4 
1471.392      -37.2 
1471.616      -37.1 
1471.839      -32.1 
1472.062      -37.6 
1472.286      -46.9 
1472.509      -40.4 
1472.732      -38.9 
1472.956      -39.9 
1473.179      -43.2 
1473.402      -46.6 
1473.625      -43.5 
1473.849      -41.5 
1474.072      -36.6 
1474.295      -31.4 
1474.519      -33.5 
1474.742      -37.3 
1474.965      -36.1 
1475.189      -40.4 
1475.412      -43.5 
1475.635      -38.8 
1475.858      -44.2 
1476.082      -46.2 
1476.305      -40.7 
1476.528      -41.3 
1476.752      -45.1 
1476.975      -51.3 
1477.198      -41.1 
1477.421      -32.8 
1477.645      -35.7 
1477.868      -41.5 
1478.091      -42.4 
1478.315      -44.0 
1478.538      -41.7 
1478.761      -41.7 
1478.985      -42.2 
1479.208      -38.9 
1479.431      -40.2 
1479.654      -44.6 
1479.878      -44.8 
1480.101      -49.1 
1480.324      -36.8 
1480.548      -32.6 
1480.771      -39.2 
1480.994      -39.2 
1481.218      -40.8 
1481.441      -43.3 
1481.664      -41.6 
1481.887      -40.3 
1482.111      -41.0 
1482.334      -37.7 
1482.557      -32.8 
1482.781      -34.2 
1483.004      -41.5 
1483.227      -44.5 
1483.451      -37.9 
1483.674      -41.0 
1483.897      -42.1 
1484.120      -44.3 
1484.344      -39.1 
1484.567      -46.4 
1484.790      -45.3 
1485.014      -40.1 
1485.237      -44.6 
1485.460      -50.1 
1485.683      -48.8 
1485.907      -52.5 
1486.130      -47.1 
1486.353      -48.5 
1486.577      -47.1 
1486.800      -41.7 
1487.023      -43.2 
1487.247      -42.8 
1487.470      -48.8 
1487.693      -50.3 
1487.916      -53.0 
1488.140      -53.0 
1488.363      -46.7 
1488.586      -42.1 
1488.810      -48.0 
1489.033      -47.1 
1489.256      -39.0 
1489.480      -41.2 
1489.703      -42.7 
1489.926      -46.0 
1490.149      -50.3 
1490.373      -54.4 
1490.596      -57.9 
1490.819      -59.9 
1491.043      -58.8 
1491.266      -51.5 
1491.489      -41.5 
1491.713      -36.6 
1491.936      -41.4 
1492.159      -40.0 
1492.382      -45.4 
1492.606      -44.8 
1492.829      -42.7 
1493.052      -39.5 
1493.276      -42.9 
1493.499      -48.0 
1493.722      -45.6 
1493.945      -44.7 
1494.169      -43.6 
1494.392      -32.6 
1494.615      -31.7 
1494.839      -38.7 
1495.062      -39.7 
1495.285      -44.9 
1495.509      -48.5 
1495.732      -49.8 
1495.955      -45.3 
1496.178      -47.2 
1496.402      -44.5 
1496.625      -47.1 
1496.848      -50.7 
1497.072      -49.7 
1497.295      -52.3 
1497.518      -49.4 
1497.742      -39.9 
1497.965      -43.0 
1498.188      -49.6 
1498.411      -50.2 
1498.635      -47.9 
1498.858      -47.8 
1499.081      -40.9 
1499.305      -38.9 
1499.528      -41.1 
1499.751      -40.8 
1499.975      -37.8 
1500.198      -39.1 
1500.421      -44.3 
1500.644      -49.6 
1500.868      -49.3 
1501.091      -45.6 
1501.314      -40.2 
1501.538      -35.2 
1501.761      -44.6 
1501.984      -51.6 
1502.208      -44.6 
1502.431      -39.8 
1502.654      -44.8 
1502.877      -44.9 
1503.101      -39.4 
1503.324      -39.8 
1503.547      -37.9 
1503.771      -41.2 
1503.994      -38.1 
1504.217      -38.7 
1504.440      -41.0 
1504.664      -44.6 
1504.887      -36.5 
1505.110      -40.1 
1505.334      -46.7 
1505.557      -40.6 
1505.780      -37.8 
1506.004      -34.0 
1506.227      -32.5 
1506.450      -35.3 
1506.673      -36.7 
1506.897      -37.2 
1507.120      -34.2 
1507.343      -31.9 
1507.567      -41.1 
1507.790      -39.6 
1508.013      -35.8 
1508.237      -34.3 
1508.460      -36.0 
1508.683      -36.4 
1508.906      -36.9 
1509.130      -35.2 
1509.353      -42.2 
1509.576      -42.3 
1509.800      -36.9 
1510.023      -29.3 
1510.246      -32.5 
1510.470      -38.1 
1510.693      -38.4 
1510.916      -34.3 
1511.139      -30.0 
1511.363      -33.9 
1511.586      -35.4 
1511.809      -40.6 
1512.033      -32.1 
1512.256      -38.7 
1512.479      -42.1 
1512.702      -36.8 
1512.926      -34.3 
1513.149      -41.3 
1513.372      -41.9 
1513.596      -40.0 
1513.819      -38.5 
1514.042      -36.7 
1514.266      -44.5 
1514.489      -45.8 
1514.712      -39.5 
1514.935      -38.2 
1515.159      -38.8 
1515.382      -39.4 
1515.605      -36.9 
1515.829      -32.1 
1516.052      -33.5 
1516.275      -43.6 
1516.499      -45.1 
1516.722      -35.7 
1516.945      -38.7 
1517.168      -41.8 
1517.392      -43.8 
1517.615      -42.1 
1517.838      -37.0 
1518.062      -31.9 
1518.285      -29.0 
1518.508      -37.6 
1518.732      -34.4 
1518.955      -33.7 
1519.178      -36.8 
1519.401      -36.0 
1519.625      -37.8 
1519.848      -47.6 
1520.071      -48.9 
1520.295      -40.1 
1520.518      -43.8 
1520.741      -43.2 
1520.964      -41.6 
1521.188      -44.5 
1521.411      -42.7 
1521.634      -39.6 
1521.858      -32.8 
1522.081      -39.4 
1522.304      -44.6 
1522.528      -37.9 
1522.751      -34.3 
1522.974      -41.9 
1523.197      -39.0 
1523.421      -28.2 
1523.644      -33.2 
1523.867      -33.1 
1524.091      -38.4 
1524.314      -41.3 
1524.537      -35.3 
1524.761      -35.8 
1524.984      -40.4 
1525.207      -43.8 
1525.430      -40.9 
1525.654      -37.2 
1525.877      -33.4 
1526.100      -32.1 
1526.324      -38.1 
1526.547      -37.5 
1526.770      -39.2 
1526.994      -44.3 
1527.217      -37.4 
1527.440      -37.3 
1527.663      -42.9 
1527.887      -31.4 
1528.110      -35.9 
1528.333      -40.9 
1528.557      -35.6 
1528.780      -34.3 
1529.003      -40.7 
1529.226      -34.6 
1529.450      -34.2 
1529.673      -50.1 
1529.896      -53.6 
1530.120      -48.2 
1530.343      -47.0 
1530.566      -51.2 
1530.790      -51.4 
1531.013      -47.7 
1531.236      -41.2 
1531.459      -45.6 
1531.683      -41.4 
1531.906      -40.9 
1532.129      -42.8 
1532.353      -37.4 
1532.576      -38.5 
1532.799      -45.3 
1533.023      -42.4 
1533.246      -33.9 
1533.469      -36.4 
1533.692      -38.3 
1533.916      -35.7 
1534.139      -41.7 
1534.362      -43.9 
1534.586      -46.6 
1534.809      -45.9 
1535.032      -43.8 
1535.256      -46.1 
1535.479      -39.7 
1535.702      -37.7 
1535.925      -36.3 
1536.149      -38.0 
1536.372      -45.0 
1536.595      -40.6 
1536.819      -44.5 
1537.042      -47.0 
1537.265      -43.6 
1537.488      -43.3 
1537.712      -39.2 
1537.935      -42.6 
1538.158      -42.8 
1538.382      -39.1 
1538.605      -42.2 
1538.828      -47.7 
1539.052      -43.8 
1539.275      -43.0 
1539.498      -47.4 
1539.721      -47.9 
1539.945      -42.6 
1540.168      -47.3 
1540.391      -43.7 
1540.615      -38.0 
1540.838      -43.1 
1541.061      -40.8 
1541.285      -41.4 
1541.508      -45.8 
1541.731      -35.6 
1541.954      -36.3 
1542.178      -35.2 
1542.401      -44.9 
1542.624      -42.1 
1542.848      -43.0 
1543.071      -41.6 
1543.294      -40.2 
1543.518      -35.7 
1543.741      -40.5 
1543.964      -43.0 
1544.187      -38.1 
1544.411      -31.2 
1544.634      -34.2 
1544.857      -37.1 
1545.081      -32.7 
1545.304      -31.8 
1545.527      -30.9 
1545.750      -36.4 
1545.974      -40.2 
1546.197      -30.4 
1546.420      -25.3 
1546.644      -28.8 
1546.867      -33.2 
1547.090      -39.3 
1547.314      -38.5 
1547.537      -38.1 
1547.760      -36.8 
1547.983      -37.5 
1548.207      -38.0 
1548.430      -36.6 
1548.653      -42.3 
1548.877      -40.2 
1549.100      -39.1 
1549.323      -36.1 
1549.547      -26.9 
1549.770      -23.4 
1549.993      -25.0 
1550.216      -19.2 
1550.440      -25.1 
1550.663      -31.6 
1550.886      -33.4 
1551.110      -34.7 
1551.333      -35.0 
1551.556      -34.5 
1551.780      -35.4 
1552.003      -27.6 
1552.226      -22.2 
1552.449      -34.4 
1552.673      -39.4 
1552.896      -32.2 
1553.119      -41.3 
1553.343      -48.1 
1553.566      -47.8 
1553.789      -44.9 
1554.012      -40.7 
1554.236      -50.0 
1554.459      -46.8 
1554.682      -42.5 
1554.906      -34.5 
1555.129      -35.2 
1555.352      -43.4 
1555.576      -45.5 
1555.799      -40.9 
1556.022      -42.3 
1556.245      -41.6 
1556.469      -42.4 
1556.692      -34.8 
1556.915      -29.7 
1557.139      -32.2 
1557.362      -40.8 
1557.585      -44.2 
1557.809      -43.4 
1558.032      -45.8 
1558.255      -41.5 
1558.478      -32.2 
1558.702      -34.6 
1558.925      -37.7 
1559.148      -35.8 
1559.372      -37.3 
1559.595      -39.0 
1559.818      -35.3 
1560.042      -34.3 
1560.265      -41.8 
1560.488      -43.9 
1560.711      -42.6 
1560.935      -35.7 
1561.158      -36.1 
1561.381      -40.7 
1561.605      -37.0 
1561.828      -41.5 
1562.051      -43.7 
1562.274      -43.3 
1562.498      -40.1 
1562.721      -42.0 
1562.944      -39.9 
1563.168      -38.1 
1563.391      -38.8 
1563.614      -38.4 
1563.838      -43.1 
1564.061      -47.4 
1564.284      -42.4 
1564.507      -43.9 
1564.731      -47.8 
1564.954      -50.6 
1565.177      -53.1 
1565.401      -51.5 
1565.624      -50.1 
1565.847      -47.7 
1566.071      -45.2 
1566.294      -41.5 
1566.517      -36.9 
1566.740      -34.6 
1566.964      -40.7 
1567.187      -41.5 
1567.410      -40.1 
1567.634      -39.5 
1567.857      -44.0 
1568.080      -42.1 
1568.304      -41.4 
1568.527      -43.0 
1568.750      -36.3 
1568.973      -40.6 
1569.197      -41.5 
1569.420      -44.0 
1569.643      -47.0 
1569.867      -48.8 
1570.090      -45.2 
1570.313      -44.0 
1570.536      -48.2 
1570.760      -44.5 
1570.983      -39.7 
1571.206      -32.9 
1571.430      -36.6 
1571.653      -37.9 
1571.876      -36.9 
1572.100      -38.1 
1572.323      -33.0 
1572.546      -31.5 
1572.769      -31.5 
1572.993      -36.2 
1573.216      -33.8 
1573.439      -38.6 
1573.663      -29.4 
1573.886      -30.8 
1574.109      -36.7 
1574.333      -38.4 
1574.556      -44.5 
1574.779      -40.7 
1575.002      -40.0 
1575.226      -45.1 
1575.449      -38.8 
1575.672      -39.7 
1575.896      -41.7 
1576.119      -34.5 
1576.342      -33.9 
1576.566      -37.5 
1576.789      -32.0 
1577.012      -30.6 
1577.235      -38.7 
1577.459      -42.1 
1577.682      -40.6 
1577.905      -42.0 
1578.129      -44.6 
1578.352      -43.1 
1578.575      -39.7 
1578.798      -42.3 
1579.022      -41.8 
1579.245      -40.5 
1579.468      -35.9 
1579.692      -37.2 
1579.915      -40.1 
1580.138      -36.1 
1580.362      -39.9 
1580.585      -44.2 
1580.808      -42.3 
1581.031      -38.3 
1581.255      -42.1 
1581.478      -48.8 
1581.701      -44.1 
1581.925      -39.6 
1582.148      -44.6 
1582.371      -47.2 
1582.595      -37.6 
1582.818      -40.5 
1583.041      -43.5 
1583.264      -48.5 
1583.488      -40.1 
1583.711      -41.2 
1583.934      -40.6 
1584.158      -44.4 
1584.381      -39.1 
1584.604      -37.6 
1584.828      -47.2 
1585.051      -44.0 
1585.274      -33.2 
1585.497      -36.7 
1585.721      -36.3 
1585.944      -38.6 
1586.167      -38.3 
1586.391      -37.5 
1586.614      -40.1 
1586.837      -41.0 
1587.060      -41.9 
1587.284      -40.8 
1587.507      -42.8 
1587.730      -49.7 
1587.954      -48.2 
1588.177      -47.7 
1588.400      -45.6 
1588.624      -45.6 
1588.847      -51.7 
1589.070      -57.1 
1589.293      -50.0 
1589.517      -43.3 
1589.740      -33.6 
1589.963      -42.0 
1590.187      -47.0 
1590.410      -37.6 
1590.633      -34.3 
1590.857      -35.8 
1591.080      -35.6 
1591.303      -29.5 
1591.526      -30.7 
1591.750      -35.9 
1591.973      -33.6 
1592.196      -36.4 
1592.420      -36.8 
1592.643      -38.5 
1592.866      -36.2 
1593.090      -36.0 
1593.313      -35.4 
1593.536      -31.1 
1593.759      -36.7 
1593.983      -37.3 
1594.206      -37.8 
1594.429      -35.5 
1594.653      -36.0 
1594.876      -43.6 
1595.099      -42.5 
1595.322      -45.8 
1595.546      -36.7 
1595.769      -32.6 
1595.992      -29.0 
1596.216      -36.2 
1596.439      -40.7 
1596.662      -33.4 
1596.886      -34.4 
1597.109      -39.5 
1597.332      -40.4 
1597.555      -32.8 
1597.779      -30.5 
1598.002      -42.9 
1598.225      -45.5 
1598.449      -48.3 
1598.672      -44.2 
1598.895      -38.8 
1599.119      -30.3 
1599.342      -30.4 
1599.565      -26.5 
1599.788      -26.5 
1600.012      -35.4 
1600.235      -42.2 
1600.458      -46.7 
1600.682      -46.3 
1600.905      -46.3 
1601.128      -40.8 
1601.352      -25.1 
1601.575      -31.7 
1601.798      -35.0 
1602.021      -42.0 
1602.245      -38.4 
1602.468      -37.1 
1602.691      -39.3 
1602.915      -41.4 
1603.138      -41.6 
1603.361      -42.4 
1603.585      -43.0 
1603.808      -41.3 
1604.031      -38.5 
1604.254      -40.1 
1604.478      -43.5 
1604.701      -41.5 
1604.924      -35.6 
1605.148      -34.8 
1605.371      -31.6 
1605.594      -25.0 
1605.817      -31.3 
1606.041      -38.0 
1606.264      -43.3 
1606.487      -45.0 
1606.711      -47.0 
1606.934      -45.5 
1607.157      -41.9 
1607.381      -44.0 
1607.604      -47.1 
1607.827      -40.3 
1608.050      -33.9 
1608.274      -36.5 
1608.497      -35.9 
1608.720      -37.1 
1608.944      -29.9 
1609.167      -37.2 
1609.390      -33.6 
1609.614      -29.8 
1609.837      -33.6 
1610.060      -36.6 
1610.283      -36.5 
1610.507      -41.3 
1610.730      -38.3 
1610.953      -37.9 
1611.177      -39.9 
1611.400      -37.4 
1611.623      -38.3 
1611.847      -40.8 
1612.070      -35.7 
1612.293      -33.0 
1612.516      -33.5 
1612.740      -31.6 
1612.963      -33.8 
1613.186      -44.0 
1613.410      -42.5 
1613.633      -43.0 
1613.856      -33.4 
1614.079      -32.1 
1614.303      -39.3 
1614.526      -39.9 
1614.749      -38.7 
1614.973      -33.5 
1615.196      -33.1 
1615.419      -41.3 
1615.643      -45.9 
1615.866      -38.1 
1616.089      -38.0 
1616.312      -42.9 
1616.536      -45.4 
1616.759      -38.3 
1616.982      -39.6 
1617.206      -37.4 
1617.429      -37.3 
1617.652      -38.5 
1617.876      -31.0 
1618.099      -28.6 
1618.322      -30.9 
1618.545      -35.0 
1618.769      -40.0 
1618.992      -41.4 
1619.215      -36.1 
1619.439      -28.8 
1619.662      -34.1 
1619.885      -37.5 
1620.109      -31.1 
1620.332      -38.0 
1620.555      -46.9 
1620.778      -42.0 
1621.002      -37.9 
1621.225      -33.9 
1621.448      -38.8 
1621.672      -40.7 
1621.895      -47.3 
1622.118      -47.3 
1622.341      -44.9 
1622.565      -34.6 
1622.788      -32.4 
1623.011      -25.7 
1623.235      -24.7 
1623.458      -23.8 
1623.681      -25.8 
1623.905      -31.3 
1624.128      -38.5 
1624.351      -37.2 
1624.574      -39.4 
1624.798      -42.5 
1625.021      -36.3 
1625.244      -24.3 
1625.468      -29.8 
1625.691      -31.9 
1625.914      -39.0 
1626.138      -40.3 
1626.361      -37.1 
1626.584      -37.0 
1626.807      -30.2 
1627.031      -25.8 
1627.254      -32.2 
1627.477      -31.4 
1627.701      -35.4 
1627.924      -40.5 
1628.147      -45.2 
1628.371      -35.6 
1628.594      -32.1 
1628.817      -32.0 
1629.040      -32.7 
1629.264      -30.1 
1629.487      -33.4 
1629.710      -36.6 
1629.934      -32.1 
1630.157      -29.1 
1630.380      -39.5 
1630.603      -35.0 
1630.827      -35.6 
1631.050      -27.9 
1631.273      -27.6 
1631.497      -29.7 
1631.720      -24.3 
1631.943      -24.1 
1632.167      -28.0 
1632.390      -41.0 
1632.613      -47.5 
1632.836      -44.4 
1633.060      -38.0 
1633.283      -33.9 
1633.506      -33.6 
1633.730      -35.1 
1633.953      -38.4 
1634.176      -42.3 
1634.400      -30.8 
1634.623      -32.2 
1634.846      -35.6 
1635.069      -30.8 
1635.293      -31.0 
1635.516      -30.3 
1635.739      -33.5 
1635.963      -36.7 
1636.186      -33.2 
1636.409      -24.0 
1636.633      -36.5 
1636.856      -41.6 
1637.079      -46.5 
1637.302      -46.8 
1637.526      -40.3 
1637.749      -41.0 
1637.972      -41.4 
1638.196      -36.5 
1638.419      -27.0 
1638.642      -27.3 
1638.865      -39.6 
1639.089      -41.2 
1639.312      -36.0 
1639.535      -31.6 
1639.759      -33.5 
1639.982      -36.8 
1640.205      -39.7 
1640.429      -40.9 
1640.652      -38.1 
1640.875      -40.0 
1641.098      -38.7 
1641.322      -40.2 
1641.545      -39.3 
1641.768      -38.6 
1641.992      -36.0 
1642.215      -35.2 
1642.438      -29.7 
1642.662      -34.4 
1642.885      -40.0 
1643.108      -34.9 
1643.331      -36.3 
1643.555      -36.4 
1643.778      -37.0 
1644.001      -31.0 
1644.225      -36.5 
1644.448      -34.0 
1644.671      -31.0 
1644.895      -28.7 
1645.118      -29.8 
1645.341      -32.4 
1645.564      -34.4 
1645.788      -37.0 
1646.011      -36.1 
1646.234      -34.6 
1646.458      -29.3 
1646.681      -22.7 
1646.904      -22.6 
1647.127      -26.9 
1647.351      -27.8 
1647.574      -34.4 
1647.797      -39.4 
1648.021      -35.2 
1648.244      -38.0 
1648.467      -41.7 
1648.691      -45.4 
1648.914      -40.9 
1649.137      -36.6 
1649.360      -41.0 
1649.584      -34.9 
1649.807      -34.9 
1650.030      -34.3 
1650.254      -39.8 
1650.477      -41.1 
1650.700      -40.5 
1650.924      -37.7 
1651.147      -46.8 
1651.370      -37.9 
1651.593      -36.9 
1651.817      -43.4 
1652.040      -41.2 
1652.263      -39.4 
1652.487      -34.6 
1652.710      -27.5 
1652.933      -31.1 
1653.157      -32.3 
1653.380      -34.2 
1653.603      -36.7 
1653.826      -41.9 
1654.050      -33.5 
1654.273      -25.1 
1654.496      -33.1 
1654.720      -31.4 
1654.943      -32.3 
1655.166      -41.5 
1655.389      -39.2 
1655.613      -27.5 
1655.836      -33.4 
1656.059      -30.2 
1656.283      -33.0 
1656.506      -29.7 
1656.729      -30.9 
1656.953      -33.2 
1657.176      -30.9 
1657.399      -31.1 
1657.622      -29.6 
1657.846      -24.2 
1658.069      -25.3 
1658.292      -35.7 
1658.516      -38.4 
1658.739      -33.7 
1658.962      -43.7 
1659.186      -39.0 
1659.409      -35.9 
1659.632      -39.9 
1659.855      -46.5 
1660.079      -42.5 
1660.302      -41.8 
1660.525      -40.6 
1660.749      -31.4 
1660.972      -32.4 
1661.195      -21.4 
1661.419      -22.3 
1661.642      -27.2 
1661.865      -26.4 
1662.088      -24.7 
1662.312      -25.1 
1662.535      -22.5 
1662.758      -26.7 
1662.982      -25.9 
1663.205      -28.7 
1663.428      -31.1 
1663.651      -35.7 
1663.875      -38.6 
1664.098      -31.4 
1664.321      -29.5 
1664.545      -33.3 
1664.768      -30.8 
1664.991      -23.0 
1665.215      -32.4 
1665.438      -39.9 
1665.661      -32.9 
1665.884      -33.1 
1666.108      -35.4 
1666.331      -34.1 
1666.554      -36.7 
1666.778      -40.3 
1667.001      -39.5 
1667.224      -40.6 
1667.448      -48.4 
1667.671      -46.2 
1667.894      -41.8 
1668.117      -40.5 
1668.341      -37.9 
1668.564      -33.4 
1668.787      -29.1 
1669.011      -29.9 
1669.234      -32.3 
1669.457      -29.1 
1669.681      -32.3 
1669.904      -32.8 
1670.127      -37.7 
1670.350      -42.0 
1670.574      -38.4 
1670.797      -37.6 
1671.020      -39.4 
1671.244      -37.2 
1671.467      -35.5 
1671.690      -35.0 
1671.913      -35.5 
1672.137      -34.2 
1672.360      -34.9 
1672.583      -32.9 
1672.807      -36.1 
1673.030      -36.0 
1673.253      -42.0 
1673.477      -36.6 
1673.700      -35.3 
1673.923      -45.9 
1674.146      -44.5 
1674.370      -40.2 
1674.593      -34.1 
1674.816      -35.5 
1675.040      -39.8 
1675.263      -45.6 
1675.486      -41.3 
1675.710      -37.1 
1675.933      -30.1 
1676.156      -30.7 
1676.379      -30.5 
1676.603      -31.9 
1676.826      -26.4 
1677.049      -40.8 
1677.273      -39.6 
1677.496      -35.3 
1677.719      -31.0 
1677.943      -37.1 
1678.166      -29.4 
1678.389      -28.7 
1678.612      -23.0 
1678.836      -33.5 
1679.059      -32.0 
1679.282      -33.1 
1679.506      -26.3 
1679.729      -31.0 
1679.952      -33.1 
1680.175      -39.9 
1680.399      -41.9 
1680.622      -40.3 
1680.845      -50.9 
1681.069      -35.6 
1681.292      -25.7 
1681.515      -32.3 
1681.739      -36.3 
1681.962      -31.1 
1682.185      -29.6 
1682.408      -32.5 
1682.632      -30.5 
1682.855      -34.9 
1683.078      -35.4 
1683.302      -37.0 
1683.525      -39.2 
1683.748      -32.1 
1683.972      -24.0 
1684.195      -30.3 
1684.418      -34.8 
1684.641      -33.9 
1684.865      -38.5 
1685.088      -40.2 
1685.311      -39.6 
1685.535      -44.4 
1685.758      -33.0 
1685.981      -31.4 
1686.205      -35.1 
1686.428      -46.9 
1686.651      -39.1 
1686.874      -33.8 
1687.098      -35.8 
1687.321      -34.0 
1687.544      -24.5 
1687.768      -19.4 
1687.991      -27.3 
1688.214      -34.5 
1688.437      -30.0 
1688.661      -28.1 
1688.884      -22.1 
1689.107      -34.7 
1689.331      -42.5 
1689.554      -36.5 
1689.777      -39.3 
1690.001      -34.7 
1690.224      -31.3 
1690.447      -36.8 
1690.670      -32.6 
1690.894      -32.1 
1691.117      -30.0 
1691.340      -31.2 
1691.564      -36.9 
1691.787      -38.0 
1692.010      -32.5 
1692.234      -38.0 
1692.457      -30.5 
1692.680      -25.7 
1692.903      -30.7 
1693.127      -39.6 
1693.350      -29.2 
1693.573      -26.3 
1693.797      -32.7 
1694.020      -35.1 
1694.243      -37.2 
1694.467      -30.0 
1694.690      -40.8 
1694.913      -44.9 
1695.136      -46.0 
1695.360      -41.8 
1695.583      -40.1 
1695.806      -38.8 
1696.030      -31.0 
1696.253      -27.9 
1696.476      -20.8 
1696.699      -25.5 
1696.923      -23.7 
1697.146      -23.3 
1697.369      -31.7 
1697.593      -35.6 
1697.816      -34.7 
1698.039      -33.3 
1698.263      -39.6 
1698.486      -31.5 
1698.709      -27.5 
1698.932      -30.7 
1699.156      -34.0 
1699.379      -39.5 
1699.602      -37.6 
1699.826      -39.5 
1700.049      -33.2 
1700.272      -29.0 
1700.496      -27.7 
1700.719      -28.3 
1700.942      -36.1 
1701.165      -38.5 
1701.389      -43.1 
1701.612      -29.9 
1701.835      -27.5 
1702.059      -28.1 
1702.282      -25.1 
1702.505      -33.6 
1702.729      -37.3 
1702.952      -31.1 
1703.175      -33.0 
1703.398      -34.7 
1703.622      -31.8 
1703.845      -29.0 
1704.068      -28.7 
1704.292      -29.0 
1704.515      -26.8 
1704.738      -24.4 
1704.962      -29.4 
1705.185      -35.0 
1705.408      -41.0 
1705.631      -43.1 
1705.855      -42.2 
1706.078      -42.2 
1706.301      -42.0 
1706.525      -41.3 
1706.748      -38.1 
1706.971      -30.8 
1707.194      -33.0 
1707.418      -35.5 
1707.641      -34.2 
1707.864      -35.3 
1708.088      -34.8 
1708.311      -25.8 
1708.534      -30.5 
1708.758      -26.2 
1708.981      -26.3 
1709.204      -38.9 
1709.427      -35.0 
1709.651      -26.4 
1709.874      -28.3 
1710.097      -31.8 
1710.321      -26.0 
1710.544      -24.4 
1710.767      -31.7 
1710.991      -30.6 
1711.214      -20.0 
1711.437      -17.1 
1711.660      -23.6 
1711.884      -22.9 
1712.107      -20.8 
1712.330      -29.2 
1712.554      -32.6 
1712.777      -30.0 
1713.000      -32.7 
1713.224      -27.3 
1713.447      -30.8 
1713.670      -28.8 
1713.893      -21.9 
1714.117      -22.2 
1714.340      -25.6 
1714.563      -19.9 
1714.787      -17.6 
1715.010      -21.3 
1715.233      -29.4 
1715.456      -22.2 
1715.680      -22.5 
1715.903      -21.2 
1716.126      -29.7 
1716.350      -29.8 
1716.573      -26.4 
1716.796      -28.2 
1717.020      -33.3 
1717.243      -41.7 
1717.466      -42.5 
1717.689      -39.3 
1717.913      -40.3 
1718.136      -27.6 
1718.359      -31.0 
1718.583      -35.7 
1718.806      -44.2 
1719.029      -44.7 
1719.253      -39.1 
1719.476      -37.1 
1719.699      -31.4 
1719.922      -41.8 
1720.146      -48.5 
1720.369      -55.7 
1720.592      -60.3 
1720.816      -54.7 
1721.039      -55.7 
1721.262      -54.3 
1721.486      -52.3 
1721.709      -50.1 
1721.932      -49.1 
1722.155      -40.1 
1722.379      -42.9 
1722.602      -43.5 
1722.825      -48.6 
1723.049      -48.8 
1723.272      -45.6 
1723.495      -45.3 
1723.718      -53.9 
1723.942      -50.7 
1724.165      -53.8 
1724.388      -53.8 
1724.612      -50.4 
1724.835      -47.8 
1725.058      -55.6 
1725.282      -55.1 
1725.505      -52.3 
1725.728      -46.8 
1725.951      -39.9 
1726.175      -43.3 
1726.398      -40.9 
1726.621      -38.1 
1726.845      -42.1 
1727.068      -38.5 
1727.291      -42.2 
1727.515      -45.4 
1727.738      -46.6 
1727.961      -49.6 
1728.184      -54.5 
1728.408      -54.6 
1728.631      -50.2 
1728.854      -48.3 
1729.078      -42.5 
1729.301      -34.1 
1729.524      -40.2 
1729.748      -47.5 
1729.971      -44.2 
1730.194      -40.4 
1730.417      -36.0 
1730.641      -33.0 
1730.864      -38.3 
1731.087      -36.4 
1731.311      -34.1 
1731.534      -36.4 
1731.757      -26.8 
1731.980      -27.8 
1732.204      -39.1 
1732.427      -41.1 
1732.650      -38.0 
1732.874      -40.5 
1733.097      -40.4 
1733.320      -32.5 
1733.544      -31.9 
1733.767      -35.0 
1733.990      -38.7 
1734.213      -29.2 
1734.437      -28.3 
1734.660      -27.5 
1734.883      -41.2 
1735.107      -36.2 
1735.330      -34.8 
1735.553      -41.3 
1735.777      -35.6 
1736.000      -28.7 
1736.223      -30.4 
1736.446      -32.6 
1736.670      -34.5 
1736.893      -34.9 
1737.116      -37.1 
1737.340      -33.3 
1737.563      -32.0 
1737.786      -33.8 
1738.010      -30.6 
1738.233      -36.2 
1738.456      -35.2 
1738.679      -35.7 
1738.903      -27.2 
1739.126      -32.0 
1739.349      -32.6 
1739.573      -22.4 
1739.796      -20.4 
1740.019      -24.5 
1740.242      -34.9 
1740.466      -29.7 
1740.689      -36.3 
1740.912      -41.1 
1741.136      -45.3 
1741.359      -41.8 
1741.582      -30.4 
1741.806      -34.8 
1742.029      -43.8 
1742.252      -43.7 
1742.475      -45.3 
1742.699      -38.6 
1742.922      -28.1 
1743.145      -29.5 
1743.369      -30.3 
1743.592      -28.0 
1743.815      -39.8 
1744.039      -38.9 
1744.262      -35.1 
1744.485      -30.3 
1744.708      -35.3 
1744.932      -52.5 
1745.155      -47.4 
1745.378      -38.2 
1745.602      -25.9 
1745.825      -25.9 
1746.048      -28.9 
1746.272      -25.9 
1746.495      -32.5 
1746.718      -40.7 
1746.941      -39.1 
1747.165      -42.6 
1747.388      -37.7 
1747.611      -31.4 
1747.835      -26.4 
1748.058      -29.2 
1748.281      -33.2 
1748.504      -28.6 
1748.728      -30.5 
1748.951      -36.9 
1749.174      -34.6 
1749.398      -34.6 
1749.621      -41.1 
1749.844      -38.3 
1750.068      -29.1 
1750.291      -30.3 
1750.514      -33.8 
1750.737      -25.3 
1750.961      -18.9 
1751.184      -25.4 
1751.407      -28.2 
1751.631      -28.6 
1751.854      -37.7 
1752.077      -43.6 
1752.301      -43.6 
1752.524      -42.4 
1752.747      -43.7 
1752.970      -42.8 
1753.194      -31.0 
1753.417      -26.0 
1753.640      -34.4 
1753.864      -36.9 
1754.087      -29.6 
1754.310      -36.4 
1754.534      -35.9 
1754.757      -32.9 
1754.980      -31.1 
1755.203      -33.0 
1755.427      -42.6 
1755.650      -40.6 
1755.873      -41.8 
1756.097      -40.9 
1756.320      -34.6 
1756.543      -33.6 
1756.766      -31.2 
1756.990      -25.3 
1757.213      -28.6 
1757.436      -29.8 
1757.660      -27.6 
1757.883      -23.5 
1758.106      -22.0 
1758.330      -24.8 
1758.553      -22.9 
1758.776      -23.5 
1758.999      -25.1 
1759.223      -24.8 
1759.446      -27.3 
1759.669      -32.3 
1759.893      -36.7 
1760.116      -39.9 
1760.339      -28.9 
1760.563      -37.3 
1760.786      -34.9 
1761.009      -27.2 
1761.232      -20.3 
1761.456      -23.0 
1761.679      -28.9 
1761.902      -36.4 
1762.126      -35.6 
1762.349      -35.3 
1762.572      -42.0 
1762.796      -34.9 
1763.019      -30.6 
1763.242      -30.1 
1763.465      -32.4 
1763.689      -36.1 
1763.912      -24.4 
1764.135      -26.8 
1764.359      -28.4 
1764.582      -30.0 
1764.805      -28.9 
1765.028      -27.5 
1765.252      -23.4 
1765.475      -28.1 
1765.698      -27.0 
1765.922      -33.5 
1766.145      -38.3 
1766.368      -34.7 
1766.592      -24.1 
1766.815      -23.1 
1767.038      -29.0 
1767.261      -27.2 
1767.485      -21.7 
1767.708      -20.2 
1767.931      -26.6 
1768.155      -28.3 
1768.378      -27.6 
1768.601      -31.5 
1768.825      -34.5 
1769.048      -34.2 
1769.271      -28.1 
1769.494      -30.5 
1769.718      -33.7 
1769.941      -31.1 
1770.164      -35.0 
1770.388      -37.1 
1770.611      -31.9 
1770.834      -27.4 
1771.058      -27.7 
1771.281      -18.7 
1771.504      -12.4 
1771.727      -27.5 
1771.951      -34.2 
1772.174      -33.4 
1772.397      -31.9 
1772.621      -33.2 
1772.844      -36.3 
1773.067      -32.5 
1773.290      -40.1 
1773.514      -35.8 
1773.737      -36.8 
1773.960      -32.1 
1774.184      -35.6 
1774.407      -31.9 
1774.630      -37.5 
1774.854      -29.6 
1775.077      -25.8 
1775.300      -27.5 
1775.523      -20.6 
1775.747      -21.6 
1775.970      -25.2 
1776.193      -28.1 
1776.417      -26.2 
1776.640      -26.8 
1776.863      -30.8 
1777.087      -29.5 
1777.310      -28.3 
1777.533      -33.8 
1777.756      -24.4 
1777.980      -14.4 
1778.203      -16.9 
1778.426      -22.4 
1778.650      -22.9 
1778.873      -36.7 
1779.096      -37.8 
1779.320      -29.5 
1779.543      -23.0 
1779.766      -28.2 
1779.989      -34.8 
1780.213      -32.0 
1780.436      -32.0 
1780.659      -28.8 
1780.883      -26.0 
1781.106      -31.4 
1781.329      -35.2 
1781.552      -26.5 
1781.776      -18.6 
1781.999      -24.3 
1782.222      -24.8 
1782.446      -23.6 
1782.669      -20.0 
1782.892      -28.6 
1783.116      -26.1 
1783.339      -25.7 
1783.562      -28.0 
1783.785      -34.6 
1784.009      -35.5 
1784.232      -31.6 
1784.455      -39.4 
1784.679      -39.1 
1784.902      -36.7 
1785.125      -31.8 
1785.349      -28.3 
1785.572      -32.1 
1785.795      -32.5 
1786.018      -37.5 
1786.242      -32.6 
1786.465      -32.1 
1786.688      -35.2 
1786.912      -28.7 
1787.135      -24.6 
1787.358      -30.7 
1787.582      -28.2 
1787.805      -29.0 
1788.028      -29.3 
1788.251      -28.7 
1788.475      -33.2 
1788.698      -42.6 
1788.921      -39.4 
1789.145      -28.6 
1789.368      -30.2 
1789.591      -38.4 
1789.814      -29.8 
1790.038      -28.4 
1790.261      -28.1 
1790.484      -21.4 
1790.708      -30.3 
1790.931      -29.3 
1791.154      -28.4 
1791.378      -29.7 
1791.601      -27.8 
1791.824      -31.5 
1792.047      -39.7 
1792.271      -32.4 
1792.494      -23.8 
1792.717      -18.7 
1792.941      -32.3 
1793.164      -36.1 
1793.387      -32.5 
1793.611      -31.9 
1793.834      -36.4 
1794.057      -38.2 
1794.280      -30.8 
1794.504      -26.0 
1794.727      -22.2 
1794.950      -25.5 
1795.174      -27.2 
1795.397      -37.4 
1795.620      -37.4 
1795.844      -33.3 
1796.067      -17.7 
1796.290      -24.7 
1796.513      -28.8 
1796.737      -32.1 
1796.960      -31.2 
1797.183      -28.3 
1797.407      -29.0 
1797.630      -37.6 
1797.853      -45.1 
1798.077      -43.9 
1798.300      -38.0 
1798.523      -38.7 
1798.746      -36.5 
1798.970      -35.4 
1799.193      -32.3 
1799.416      -28.7 
1799.640      -31.3 
1799.863      -17.2 
1800.086      -23.8 
time:        1111.4 


